***Scan Config Information***,,,,,,,***Reference Scan Information***,,,,,,,,
Scan Config Name:,Column 1,,,,,,Scan Config Name:,Local New Reference,,,,,,,
Scan Config Type:,Slew,Num Section:,1,,,,Scan Config Type:,Slew,Num Section:,1,,,,,
Section Config Type:,Column,,,,,,Section Config Type:,Column,,,,,,,
Start Wavelength (nm):,900,,,,,,Start Wavelength (nm):,900,,,,,,,
End Wavelength (nm):,1700,,,,,,End Wavelength (nm):,1700,,,,,,,
Pattern Width (nm):,7.03,,,,,,Pattern Width (nm):,7.03,,,,,,,
Exposure (ms):,0.635,,,,,,Exposure (ms):,0.635,,,,,,,
Digital Resolution:,228,,,,,,Digital Resolution:,228,,,,,,,
Num Repeats:,6,,,,,,Num Repeats:,6,,,,,,,
PGA Gain:,64,,,,,,PGA Gain:,64,,,,,,,
System Temp (C):,26.46,,,,,,System Temp (C):,25.78,,,,,,,
Humidity (%):,34.13,,,,,,Humidity (%):,34.72,,,,,,,
Lamp Intensity:,3019,,,,,,Lamp Intensity:,3010,,,,,,,
Data Date-Time:,2022/10/10T03:05:35,,,,,,Data Date-Time:,2022/10/10T03:04:56,,,,,,,
Total Measurement Time in sec:,3.1718007,,,,,,,,,,,,,,
,,,,,,,,,,,,,,,
***General Information***,,,,,,,***Calibration Coefficients***,,,,,,,,
Model Name:,NIR-S-G1,,,,,,Shift Vector Coefficients:,-5.53788089867561,0.0467532770725977,-9.86615555338903E-05,,,,,
Serial Number:,A43R020,(95UB122GC0AA43R020),,,,,Pixel to Wavelength Coefficients:,1754.84743575991,-0.928654795541597,-0.000239616035096235,,,,,
GUI Version:,3.7.6,,,,,,Versions (Cal/Ref/Cfg):,1,3,1,,,,,
TIVA Version:,2.4.7,,,,,,***Lamp Usage ***,,,,,,,,
DLPC Version:,2.2.0,,,,,,Total Time(hh:mm:ss):,9min 10sec ,,,,,,,
UUID:,DE:67:0C:88:67:3F:1D:21,,,,,,***Device/Error/Activation Status***,,,,,,,,
Main Board Version:,D,,,,,,Device Status:,0x00000001,Activation Status:,Activated,,,,,
Detector Board Version:,B,,,,,,Error status:,0x00000000,Error Code:,0x00000000000000000000000000000000,,,,,
,,,,,,,,,Error Details:,Not found,,,,,
***Scan Data***,,,,,,,,,,,,,,,
Wavelength (nm),Absorbance (AU),Reference Signal (unitless),Sample Signal (unitless)
900.957557108074,0.0215720257201075,25032,23819
904.844796792001,0.0204979033057653,31539,30085
910.021073788255,0.0206113380886795,37734,35985
913.898249598708,0.0218729692306735,42531,40442
917.771112320529,0.016869273234643,47850,46027
921.639661953718,0.0269923112601747,54912,51603
925.503898498276,0.0200547140541847,63420,60558
929.363821954203,0.0213573161142309,73811,70269
933.219432321497,0.0228353276335663,84339,80019
937.070729600159,0.0211004722555579,94108,89645
942.199083389394,0.0175945226799582,106742,102504
946.040316794582,0.0197783500514529,114870,109756
949.877237111139,0.0190018555313943,122775,117519
953.709844339064,0.0182463269282372,130106,124753
957.538138478358,0.0183908077879092,137426,131728
961.362119529019,0.0178355354752809,144249,138445
965.181787491049,0.0165381116345076,151347,145692
968.997142364448,0.0171448976526745,158854,152705
974.077572946662,0.0172458218151843,169604,163001
977.882863946587,0.0149530393715114,176601,170624
981.683841857879,0.0133902813440356,184607,179002
985.48050668054,0.015039658062152,192377,185829
989.272858414569,0.0124324903138802,199674,194039
993.060897059966,0.0134279902405218,206891,200592
996.844622616732,0.0129101971836948,213081,206840
1000.62403508487,0.0113902009114672,219308,213631
1005.65654246006,0.0111348747831886,226918,221174
1009.42589105472,0.0112434318540489,232346,226408
1013.19092656075,0.0113113154563734,236843,230754
1016.95164897815,0.0103104265949769,241251,235591
1020.70805830691,0.00938151354207151,244875,239642
1024.46015454704,0.0104784421314376,249174,243234
1028.20793769854,0.00847574565143785,251411,246552
1031.95140776141,0.00813318385423393,253435,248733
1036.93599192959,0.00754311509606,255420,251022
1040.66939811898,0.00757562642023116,256820,252379
1044.39849121975,0.00781121357830247,258286,253682
1048.12327123188,0.00700291273063195,259198,255052
1051.84373815538,0.00681559843591298,260099,256049
1055.55989199025,0.00648480368111733,261118,257248
1059.27173273648,0.00639921126642342,261508,257683
1064.21414448248,0.00644054887072648,261744,257891
1067.91592135525,0.00538138370415374,261721,258498
1071.61338513938,0.00566692328177228,262500,259097
1075.30653583488,0.00415344678661398,262553,260054
1078.99537344174,0.00526950259386269,263678,260498
1082.67989795998,0.00464008700888818,264601,261789
1086.36010938958,0.00392159218105234,265431,263045
1090.03600773056,0.00334501497882585,266142,264100
1094.93049626954,0.00352396422064291,268023,265857
1098.59633073703,0.00286439057928894,269707,267934
1102.2578521159,0.00420980735542865,271909,269286
1105.91506040614,0.00287742161201693,273184,271380
1109.56795560774,0.00329536355575266,274899,272821
1113.21653772071,0.00245264773490228,276835,275276
1116.86080674505,0.00301982455031768,278961,277028
1120.50076268076,0.00247726523996506,280421,278826
1125.34732801272,0.00166160996384975,282034,280957
1128.97722007495,0.0015669551289555,283767,282745
1132.60279904855,0.00187919117644621,284414,283186
1136.22406493352,0.00228280237867598,283831,282343
1139.84101772986,0.00242199547078399,281947,280379
1143.45365743757,0.00199412887484207,277661,276389
1147.06198405664,0.00201393499786501,272559,271298
1150.66599758709,0.00174790769118226,268385,267307
1155.46463971203,0.00305976978772403,266928,265054
1159.058589369,0.00238744871420407,266133,264674
1162.64822593734,0.00223373025157561,263735,262382
1166.23354941704,0.00273125719075902,259522,257895
1169.81455980812,0.00262919720174805,253659,252128
1173.39125711056,0.003611697606091,248498,246440
1176.96364132437,0.00355997353742463,241559,239587
1180.53171244955,0.0032987244316393,231405,229654
1185.28243136747,0.00449974437764256,215182,212964
1188.84043861918,0.00463586741068854,206165,203976
1192.39413278225,0.00481158354146835,204031,201783
1195.94351385669,0.00531230022397567,208842,206303
1199.4885818425,0.00414668903830721,215308,213262
1203.02933673968,0.00297576370723525,221424,219912
1206.56577854822,0.00445162648893493,225929,223625
1210.09790726814,0.00314887084773202,228672,227020
1214.80070297904,0.00277984174618578,236663,235153
1218.32276782548,0.00309971054549266,249721,247945
1221.84051958329,0.00270414764007541,267432,265772
1225.35395825247,0.00179587385746142,287645,286458
1228.86308383301,0.000348767671689333,308940,308692
1232.36789632493,0.000284997847370061,329260,329044
1235.86839572821,-0.000373942656867401,348268,348568
1240.52901901693,-0.000853876828880077,370924,371654
1244.01945454674,-0.00100580656954342,385571,386465
1247.50557698792,-0.00132673630200441,398092,399310
1250.98738634046,-0.00167746405911645,409822,411408
1254.46488260438,-0.00216504363415538,420198,422298
1257.93806577966,-0.0022748141058589,429766,432023
1261.40693586631,-0.00215567434434635,439111,441296
1264.87149286432,-0.00265665694815014,448506,451258
1269.48419294603,-0.00290415342778933,459947,463033
1272.93868607057,-0.00249107199726604,468675,471371
1276.38886610648,-0.00288033306135091,476387,479557
1279.83473305376,-0.00358777245768297,484005,488020
1283.27628691241,-0.00369909676852927,491357,495560
1286.71352768243,-0.0036614671636806,498200,502418
1290.14645536381,-0.0038696726187786,505136,509657
1293.57506995657,-0.00476890541176831,511533,517181
1298.13984683125,-0.00488216898810557,519680,525555
1301.55839755053,-0.00469900505311171,525435,531151
1304.97263518118,-0.00528733110864587,530005,536497
1308.3825597232,-0.00542875171139823,534876,541604
1311.78817117658,-0.00524172536481582,539421,545971
1315.18946954133,-0.00564657572781147,542310,549407
1318.58645481745,-0.00574810551159982,545278,552543
1321.97912700494,-0.00556071581417497,547634,554691
1326.49598067261,-0.00564266933733378,549417,556602
1329.87858898662,-0.00553950146273927,549511,556565
1333.25688421201,-0.00592381020282282,549167,556709
1336.63086634876,-0.00552288486779043,547815,554826
1340.00053539688,-0.00566112425944434,545404,552560
1343.36589135636,-0.00500976022876436,541191,547470
1346.72693422722,-0.00520628069172067,533580,540015
1350.08366400944,-0.00464939349700918,521874,527491
1354.55259447009,-0.0046870796611475,495353,500728
1357.89926037884,-0.00385151550503469,471717,475919
1361.24161319896,-0.00302345996936989,451184,454336
1364.57965293045,-0.00236267499618702,434457,436827
1367.9133795733,-0.00233544860246743,420248,422514
1371.24279312752,-0.00189977074555312,405797,407576
1374.56789359312,-0.000938436075967579,390169,391013
1378.99465163159,-0.000550551485745178,368941,369409
1382.30968822371,0.000358916000660892,353471,353179
1385.62041172719,0.00137670320928489,339973,338897
1388.92682214204,0.0021681367089147,326514,324888
1392.22891946827,0.00127802963317894,312410,311492
1395.52670370586,0.00259888460132398,302701,300895
1398.82017485482,0.00137768593071483,300264,299313
1402.10933291514,0.00204787750874813,304189,302758
1406.4881677466,0.00187258747634696,305868,304552
1409.76726193345,0.00171605659017941,299982,298799
1413.04204303167,0.000989844555901123,292980,292313
1416.31251104126,0.000847021151525514,287923,287362
1419.57866596222,0.0010465023836739,286277,285588
1422.84050779454,0.000494804194972025,284540,284216
1426.09803653824,7.87973134362489E-05,281114,281063
1429.3512521933,-0.000304516566401558,278007,278202
1433.68216381773,-0.00125265114259534,274537,275330
1436.92531559932,-0.00105839036293298,273360,274027
1440.16415429228,-0.002501919834093,272955,274532
1443.3986798966,-0.0017863167564554,273679,274807
1446.6288924123,-0.00210641609606232,275402,276741
1449.85479183936,-0.00270713087156737,276833,278564
1453.07637817779,-0.00405161480152323,277824,280428
1456.29365142759,-0.0041703831327767,279306,282001
1460.576639845,-0.00458904671408802,280908,283892
1463.78384922132,-0.00426566550503786,281750,284531
1466.98674550902,-0.00444705047351781,282638,285547
1470.18532870808,-0.00466433174621339,283481,286542
1473.37959881851,-0.00551511252324445,284429,288064
1476.5695558403,-0.00509025697962344,285164,288526
1479.75519977347,-0.00555374453816634,285002,288670
1482.936530618,-0.00466276095768531,284874,287949
1487.1715958284,-0.00630063297877325,283642,287787
1490.34286279946,-0.00543839828381453,284102,287682
1493.50981668188,-0.00569344957923277,284481,288235
1496.67245747568,-0.00610898449806167,285334,289376
1499.83078518084,-0.00647817354944349,286392,290696
1502.98479979738,-0.00684258220837678,287965,292538
1506.13450132528,-0.0065257505696826,288846,293219
1510.3273941135,-0.00610662940554639,289682,293784
1513.46703176792,-0.0072146789212818,289353,294200
1516.60235633372,-0.00669754867528416,288459,292942
1519.73336781088,-0.00719572467200709,288266,293082
1522.86006619941,-0.00719266954139918,287611,292414
1525.98245149931,-0.00798927399433039,286434,291752
1529.10052371058,-0.00866703192309357,284764,290504
1532.21428283322,-0.00892614740216845,282627,288496
1536.35925241442,-0.00880950205434023,279771,285504
1539.46294766358,-0.00833984566804442,277016,282387
1542.56232982411,-0.00827836310834658,273741,279009
1545.65739889601,-0.0094842118504918,269630,275583
1548.74815487928,-0.00951455960864606,265826,271714
1551.83459777391,-0.00985218618975814,261759,267765
1554.91672757992,-0.00939862541598743,257485,263118
1557.99454429729,-0.00945356044755276,253246,258819
1562.09159067147,-0.0099365146571378,246636,252344
1565.15934351537,-0.00937681462416364,241871,247150
1568.22278327063,-0.0112933026566784,236441,242670
1571.28190993727,-0.011106423448399,231708,237710
1574.33672351527,-0.0109313150205349,226758,232538
1577.38722400464,-0.0105833696065983,221619,227086
1580.43341140538,-0.00902943186862823,216958,221516
1583.47528571749,-0.0105686285125972,211702,216917
1587.52440888465,-0.0112842101563445,205331,210736
1590.55621932328,-0.0102518606896141,200782,205578
1593.58371667328,-0.00902135277701268,196144,200261
1596.60690093465,-0.0109773430699512,191379,196278
1599.62577210739,-0.0108369965752854,186488,191200
1602.6403301915,-0.0100165540907412,182239,186491
1605.65057518697,-0.00972525858618309,177516,181536
1608.65650709382,-0.0104432100172133,172160,176350
1612.65770705396,-0.00857432931434494,165753,169058
1615.65357508733,-0.0088428012373263,159261,162537
1618.64513003206,-0.00741888561085909,153459,156103
1621.63237188817,-0.00820830646421531,147641,150458
1624.61530065564,-0.00774150951779577,141560,144106
1627.59391633449,-0.00746480111004977,135722,138075
1630.5682189247,-0.00904359696383907,130406,133150
1633.53820842628,-0.00881830846165877,125436,128009
1637.4914851794,-0.00901892959430673,119758,122271
1640.4514108075,-0.00719423502749114,115546,117476
1643.40702334698,-0.00946368517785195,110576,113012
1646.35832279782,-0.00699922108498002,107036,108775
1649.30530916003,-0.00792510990309188,102358,104243
1652.2479824336,-0.00854065236059,97582,99520
1655.18634261855,-0.00885440553397319,92051,93947
1659.09744694949,-0.0075118153740286,84083,85550
1662.02574326097,-0.00914901037712098,77126,78768
1664.94972648381,-0.0112719859413362,69102,70919
1667.86939661802,-0.0116169431918221,60937,62589
1670.78475366359,-0.0096540288356672,52362,53539
1673.69579762054,-0.0105097084168474,43438,44502
1676.60252848885,-0.012627642390697,35115,36151
1679.50494626853,-0.012714456079529,26827,27624
1683.36812739246,-0.00919817889777834,17005,17369
1686.26048129867,-0.0295726587311531,10828,11591
1689.14852211624,-0.0254045797740948,6557,6952
1692.03224984519,0.0286085991165735,4047,3789
1694.9116644855,-0.103850138949328,2210,2807
1697.78676603718,0.0260348428310013,1753,1651
1700.65755450023,0.0719865904274045,1329,1126
