***Scan Config Information***,,,,,,,***Reference Scan Information***,,,,,,,,
Scan Config Name:,Column 1,,,,,,Scan Config Name:,Local New Reference,,,,,,,
Scan Config Type:,Slew,Num Section:,1,,,,Scan Config Type:,Slew,Num Section:,1,,,,,
Section Config Type:,Column,,,,,,Section Config Type:,Column,,,,,,,
Start Wavelength (nm):,900,,,,,,Start Wavelength (nm):,900,,,,,,,
End Wavelength (nm):,1700,,,,,,End Wavelength (nm):,1700,,,,,,,
Pattern Width (nm):,7.03,,,,,,Pattern Width (nm):,7.03,,,,,,,
Exposure (ms):,0.635,,,,,,Exposure (ms):,0.635,,,,,,,
Digital Resolution:,228,,,,,,Digital Resolution:,228,,,,,,,
Num Repeats:,6,,,,,,Num Repeats:,6,,,,,,,
PGA Gain:,64,,,,,,PGA Gain:,64,,,,,,,
System Temp (C):,27.26,,,,,,System Temp (C):,25.78,,,,,,,
Humidity (%):,33.48,,,,,,Humidity (%):,34.72,,,,,,,
Lamp Intensity:,3029,,,,,,Lamp Intensity:,3010,,,,,,,
Data Date-Time:,2022/10/10T03:06:27,,,,,,Data Date-Time:,2022/10/10T03:04:56,,,,,,,
Total Measurement Time in sec:,3.1534801,,,,,,,,,,,,,,
,,,,,,,,,,,,,,,
***General Information***,,,,,,,***Calibration Coefficients***,,,,,,,,
Model Name:,NIR-S-G1,,,,,,Shift Vector Coefficients:,-5.53788089867561,0.0467532770725977,-9.86615555338903E-05,,,,,
Serial Number:,A43R020,(95UB122GC0AA43R020),,,,,Pixel to Wavelength Coefficients:,1754.84743575991,-0.928654795541597,-0.000239616035096235,,,,,
GUI Version:,3.7.6,,,,,,Versions (Cal/Ref/Cfg):,1,3,1,,,,,
TIVA Version:,2.4.7,,,,,,***Lamp Usage ***,,,,,,,,
DLPC Version:,2.2.0,,,,,,Total Time(hh:mm:ss):,9min 21sec ,,,,,,,
UUID:,DE:67:0C:88:67:3F:1D:21,,,,,,***Device/Error/Activation Status***,,,,,,,,
Main Board Version:,D,,,,,,Device Status:,0x00000001,Activation Status:,Activated,,,,,
Detector Board Version:,B,,,,,,Error status:,0x00000000,Error Code:,0x00000000000000000000000000000000,,,,,
,,,,,,,,,Error Details:,Not found,,,,,
***Scan Data***,,,,,,,,,,,,,,,
Wavelength (nm),Absorbance (AU),Reference Signal (unitless),Sample Signal (unitless)
900.957557108074,-0.0221696817349799,25032,26343
904.844796792001,-0.0141964614784852,31539,32587
910.021073788255,-0.0260756587904064,37734,40069
913.898249598708,-0.0195275258205425,42531,44487
917.771112320529,-0.0185665959024666,47850,49940
921.639661953718,-0.0168319193890482,54912,57082
925.503898498276,-0.0156629141812267,63420,65749
929.363821954203,-0.0131322891758234,73811,76077
933.219432321497,-0.0141592040283097,84339,87134
937.070729600159,-0.0151508430312692,94108,97449
942.199083389394,-0.0136097363268755,106742,110140
946.040316794582,-0.0156613805804463,114870,119088
949.877237111139,-0.0152371610868637,122775,127159
953.709844339064,-0.0124378416475827,130106,133886
957.538138478358,-0.0126721876390489,137426,141495
961.362119529019,-0.0120107686462449,144249,148294
965.181787491049,-0.0117118880214243,151347,155484
968.997142364448,-0.01118678502269,158854,162999
974.077572946662,-0.00880577747860119,169604,173078
977.882863946587,-0.0102941352494514,176601,180837
981.683841857879,-0.00871976556838117,184607,188351
985.48050668054,-0.00853700093739664,192377,196196
989.272858414569,-0.00944062074035513,199674,204062
993.060897059966,-0.00766933542796013,206891,210577
996.844622616732,-0.00761069469969646,213081,216848
1000.62403508487,-0.00800925380143752,219308,223390
1005.65654246006,-0.00723700118958089,226918,230731
1009.42589105472,-0.00587230819520133,232346,235509
1013.19092656075,-0.00642693701800546,236843,240374
1016.95164897815,-0.00613467444315789,241251,244683
1020.70805830691,-0.00620539413075109,244875,248399
1024.46015454704,-0.00476164756326246,249174,251921
1028.20793769854,-0.00560374463887649,251411,254676
1031.95140776141,-0.00548821388539094,253435,256658
1036.93599192959,-0.00543911189285303,255420,258639
1040.66939811898,-0.00625390159831488,256820,260545
1044.39849121975,-0.00393686788892757,258286,260638
1048.12327123188,-0.00460499347127703,259198,261961
1051.84373815538,-0.00480055260617002,260099,262990
1055.55989199025,-0.00411848045300041,261118,263606
1059.27173273648,-0.00388693291546453,261508,263859
1064.21414448248,-0.00410374607682606,261744,264229
1067.91592135525,-0.00484645523563065,261721,264658
1071.61338513938,-0.00414442570196079,262500,265017
1075.30653583488,-0.00605468837830724,262553,266239
1078.99537344174,-0.00371956673360783,263678,265946
1082.67989795998,-0.00413280874929814,264601,267131
1086.36010938958,-0.00385892941991327,265431,267800
1090.03600773056,-0.0041833423160772,266142,268718
1094.93049626954,-0.00448782212079767,268023,270807
1098.59633073703,-0.00531019745918478,269707,273025
1102.2578521159,-0.00442400976536642,271909,274693
1105.91506040614,-0.00395157571674952,273184,275681
1109.56795560774,-0.00474507842670825,274899,277919
1113.21653772071,-0.00483155029925157,276835,279932
1116.86080674505,-0.00386702006337957,278961,281456
1120.50076268076,-0.00466899196481498,280421,283452
1125.34732801272,-0.00508706364360229,282034,285357
1128.97722007495,-0.00463694331643721,283767,286813
1132.60279904855,-0.00465062306078407,284414,287476
1136.22406493352,-0.00437392480074143,283831,286704
1139.84101772986,-0.00424592102868017,281947,284717
1143.45365743757,-0.00501211773830375,277661,280884
1147.06198405664,-0.00423050914052286,272559,275227
1150.66599758709,-0.00489000692603909,268385,271424
1155.46463971203,-0.00402763946854099,266928,269415
1159.058589369,-0.00494083237867008,266133,269178
1162.64822593734,-0.00412347920558034,263735,266251
1166.23354941704,-0.00424810075578104,259522,262073
1169.81455980812,-0.0046999261619072,253659,256419
1173.39125711056,-0.00359057594227361,248498,250561
1176.96364132437,-0.00391783785565355,241559,243748
1180.53171244955,-0.00428039875265342,231405,233697
1185.28243136747,-0.00483898020270055,215182,217593
1188.84043861918,-0.00459315731309853,206165,208357
1192.39413278225,-0.00484727593846755,204031,206321
1195.94351385669,-0.0029883858978175,208842,210284
1199.4885818425,-0.00397557572874416,215308,217288
1203.02933673968,-0.00448400113740832,221424,223722
1206.56577854822,-0.00281275077090483,225929,227397
1210.09790726814,-0.00273760064628316,228672,230118
1214.80070297904,-0.00418939181292344,236663,238957
1218.32276782548,-0.00336948107752532,249721,251666
1221.84051958329,-0.004229201183857,267432,270049
1225.35395825247,-0.00358609330366448,287645,290030
1228.86308383301,-0.00400336150206474,308940,311801
1232.36789632493,-0.004180831661406,329260,332445
1235.86839572821,-0.00423286393025596,348268,351679
1240.52901901693,-0.00355879762575896,370924,373976
1244.01945454674,-0.00397919144284311,385571,389120
1247.50557698792,-0.00415400646469039,398092,401918
1250.98738634046,-0.00335478323752478,409822,413000
1254.46488260438,-0.00334610499772038,420198,423448
1257.93806577966,-0.00378910502244416,429766,433532
1261.40693586631,-0.00378431125664445,439111,442954
1264.87149286432,-0.00360071515118954,448506,452240
1269.48419294603,-0.0039645991961743,459947,464165
1272.93868607057,-0.00321372486667158,468675,472156
1276.38886610648,-0.00363676887292207,476387,480393
1279.83473305376,-0.00374525818911202,484005,488197
1283.27628691241,-0.00416069895864273,491357,496087
1286.71352768243,-0.00351016929285313,498200,502243
1290.14645536381,-0.00340927798328416,505136,509117
1293.57506995657,-0.00392835850280205,511533,516181
1298.13984683125,-0.0038968645030721,519680,524364
1301.55839755053,-0.00363639922177625,525435,529853
1304.97263518118,-0.00422883484081559,530005,535191
1308.3825597232,-0.0038276827607468,534876,539611
1311.78817117658,-0.00385861821293193,539421,544235
1315.18946954133,-0.00403575862887799,542310,547373
1318.58645481745,-0.00383472174332984,545278,550114
1321.97912700494,-0.00374439721548034,547634,552376
1326.49598067261,-0.0038122278028269,549417,554261
1329.87858898662,-0.00420154807152856,549511,554853
1333.25688421201,-0.00432554712129532,549167,554664
1336.63086634876,-0.00420350106697237,547815,553143
1340.00053539688,-0.00413445208583107,545404,550621
1343.36589135636,-0.00382775939474476,541191,545982
1346.72693422722,-0.00421192324761294,533580,538780
1350.08366400944,-0.00372216811874168,521874,526366
1354.55259447009,-0.00411600375917992,495353,500070
1357.89926037884,-0.00438957985656328,471717,476509
1361.24161319896,-0.00395636018027335,451184,455313
1364.57965293045,-0.00415945368772865,434457,438638
1367.9133795733,-0.0037854224883217,420248,423927
1371.24279312752,-0.00388567930545478,405797,409444
1374.56789359312,-0.00387625008988834,390169,393667
1378.99465163159,-0.00422181845281278,368941,372545
1382.30968822371,-0.00367650743483667,353471,356476
1385.62041172719,-0.00317049737654939,339973,342464
1388.92682214204,-0.00347226000679529,326514,329135
1392.22891946827,-0.00396598501497928,312410,315276
1395.52670370586,-0.00327316822084255,302701,304991
1398.82017485482,-0.00383758540028699,300264,302929
1402.10933291514,-0.0035192909738876,304189,306664
1406.4881677466,-0.00314073957018201,305868,308088
1409.76726193345,-0.0025045845662392,299982,301717
1413.04204303167,-0.00272927865109479,292980,294827
1416.31251104126,-0.00316057412115212,287923,290026
1419.57866596222,-0.00272062069147438,286277,288076
1422.84050779454,-0.0017365100101351,284540,285680
1426.09803653824,-0.00228046190610939,281114,282594
1429.3512521933,-0.00186123819136557,278007,279201
1433.68216381773,-0.00203274322682784,274537,275825
1436.92531559932,-0.00130872610910645,273360,274185
1440.16415429228,-0.00261106031339056,272955,274601
1443.3986798966,-0.00247638632644781,273679,275244
1446.6288924123,-0.0015442367430357,275402,276383
1449.85479183936,-0.00107955751138157,276833,277522
1453.07637817779,-0.00250793355045131,277824,279433
1456.29365142759,-0.00240034836259249,279306,280854
1460.576639845,-0.00195904329805256,280908,282178
1463.78384922132,-0.0019562709024204,281750,283022
1466.98674550902,-0.00140063196443885,282638,283551
1470.18532870808,-0.00257074184154889,283481,285164
1473.37959881851,-0.00168547592433954,284429,285535
1476.5695558403,-0.00164017697700776,285164,286243
1479.75519977347,-0.00132675075760638,285002,285874
1482.936530618,-0.00147930559488638,284874,285846
1487.1715958284,-0.00203165139904924,283642,284972
1490.34286279946,-0.00183204729936913,284102,285303
1493.50981668188,-0.00128960422339272,284481,285327
1496.67245747568,-0.00174836311412574,285334,286485
1499.83078518084,-0.00197294135519243,286392,287696
1502.98479979738,-0.0010649554314496,287965,288672
1506.13450132528,-0.00197567505535189,288846,290163
1510.3273941135,-0.000780387442179444,289682,290203
1513.46703176792,-0.00112273342402271,289353,290102
1516.60235633372,-0.0012523303433623,288459,289292
1519.73336781088,-0.00171410887867538,288266,289406
1522.86006619941,-0.00102257959634591,287611,288289
1525.98245149931,-0.000822523370371333,286434,286977
1529.10052371058,-0.00115449234644219,284764,285522
1532.21428283322,-0.00141140806541651,282627,283547
1536.35925241442,-0.000156756157580595,279771,279872
1539.46294766358,-0.000553066813967346,277016,277369
1542.56232982411,0.000469862822449841,273741,273445
1545.65739889601,-0.000128837315263303,269630,269710
1548.74815487928,0.000739085667156272,265826,265374
1551.83459777391,5.80737364509149E-05,261759,261724
1554.91672757992,0.000408368195879696,257485,257243
1557.99454429729,0.00113331904947443,253246,252586
1562.09159067147,0.000505664595829432,246636,246349
1565.15934351537,0.000932898155833107,241871,241352
1568.22278327063,0.000786862166910568,236441,236013
1571.28190993727,0.000832995555155527,231708,231264
1574.33672351527,0.00112185923767173,226758,226173
1577.38722400464,0.000139157060335932,221619,221548
1580.43341140538,0.00152801422401748,216958,216196
1583.47528571749,0.000679558860245319,211702,211371
1587.52440888465,0.0013345579803621,205331,204701
1590.55621932328,0.00233583754058551,200782,199705
1593.58371667328,0.00189946999287029,196144,195288
1596.60690093465,0.00238703336007019,191379,190330
1599.62577210739,0.00164258219650908,186488,185784
1602.6403301915,0.00163310981305178,182239,181555
1605.65057518697,0.00228615301784292,177516,176584
1608.65650709382,0.00169345363922845,172160,171490
1612.65770705396,0.00334037906916608,165753,164483
1615.65357508733,0.00178708767125127,159261,158607
1618.64513003206,0.00134067420302703,153459,152986
1621.63237188817,0.00162973531838845,147641,147088
1624.61530065564,0.00166600299988403,141560,141018
1627.59391633449,0.00158683743221677,135722,135227
1630.5682189247,0.00113712853205401,130406,130065
1633.53820842628,0.0016372782607272,125436,124964
1637.4914851794,0.00170777732752779,119758,119288
1640.4514108075,0.00190981769984736,115546,115039
1643.40702334698,-0.00307224653861158,110576,111361
1646.35832279782,0.0001095652883607,107036,107009
1649.30530916003,-0.000508849458009595,102358,102478
1652.2479824336,-0.0018120426817197,97582,97990
1655.18634261855,-0.0043983960981494,92051,92988
1659.09744694949,-0.0050631291291949,84083,85069
1662.02574326097,-0.00710971512711805,77126,78399
1664.94972648381,-0.012641557601147,69102,71143
1667.86939661802,-0.0129955800147445,60937,62788
1670.78475366359,-0.0127819810256103,52362,53926
1673.69579762054,-0.0178735143287549,43438,45263
1676.60252848885,-0.015978419667797,35115,36431
1679.50494626853,-0.0243025344940811,26827,28371
1683.36812739246,-0.0325621349494014,17005,18329
1686.26048129867,-0.0331919558277715,10828,11688
1689.14852211624,-0.032284022584652,6557,7063
1692.03224984519,-0.0396624843869027,4047,4434
1694.9116644855,-0.0763883458634547,2210,2635
1697.78676603718,0.0440267388403202,1753,1584
1700.65755450023,-0.0687636316253882,1329,1557
