***Scan Config Information***,,,,,,,***Reference Scan Information***,,,,,,,,
Scan Config Name:,Column 1,,,,,,Scan Config Name:,Local New Reference,,,,,,,
Scan Config Type:,Slew,Num Section:,1,,,,Scan Config Type:,Slew,Num Section:,1,,,,,
Section Config Type:,Column,,,,,,Section Config Type:,Column,,,,,,,
Start Wavelength (nm):,900,,,,,,Start Wavelength (nm):,900,,,,,,,
End Wavelength (nm):,1700,,,,,,End Wavelength (nm):,1700,,,,,,,
Pattern Width (nm):,7.03,,,,,,Pattern Width (nm):,7.03,,,,,,,
Exposure (ms):,0.635,,,,,,Exposure (ms):,0.635,,,,,,,
Digital Resolution:,228,,,,,,Digital Resolution:,228,,,,,,,
Num Repeats:,6,,,,,,Num Repeats:,6,,,,,,,
PGA Gain:,64,,,,,,PGA Gain:,64,,,,,,,
System Temp (C):,27.92,,,,,,System Temp (C):,25.78,,,,,,,
Humidity (%):,33.09,,,,,,Humidity (%):,34.72,,,,,,,
Lamp Intensity:,3036,,,,,,Lamp Intensity:,3010,,,,,,,
Data Date-Time:,2022/10/10T03:07:24,,,,,,Data Date-Time:,2022/10/10T03:04:56,,,,,,,
Total Measurement Time in sec:,3.1504454,,,,,,,,,,,,,,
,,,,,,,,,,,,,,,
***General Information***,,,,,,,***Calibration Coefficients***,,,,,,,,
Model Name:,NIR-S-G1,,,,,,Shift Vector Coefficients:,-5.53788089867561,0.0467532770725977,-9.86615555338903E-05,,,,,
Serial Number:,A43R020,(95UB122GC0AA43R020),,,,,Pixel to Wavelength Coefficients:,1754.84743575991,-0.928654795541597,-0.000239616035096235,,,,,
GUI Version:,3.7.6,,,,,,Versions (Cal/Ref/Cfg):,1,3,1,,,,,
TIVA Version:,2.4.7,,,,,,***Lamp Usage ***,,,,,,,,
DLPC Version:,2.2.0,,,,,,Total Time(hh:mm:ss):,9min 32sec ,,,,,,,
UUID:,DE:67:0C:88:67:3F:1D:21,,,,,,***Device/Error/Activation Status***,,,,,,,,
Main Board Version:,D,,,,,,Device Status:,0x00000001,Activation Status:,Activated,,,,,
Detector Board Version:,B,,,,,,Error status:,0x00000000,Error Code:,0x00000000000000000000000000000000,,,,,
,,,,,,,,,Error Details:,Not found,,,,,
***Scan Data***,,,,,,,,,,,,,,,
Wavelength (nm),Absorbance (AU),Reference Signal (unitless),Sample Signal (unitless)
900.957557108074,0.000694537940930599,25032,24992
904.844796792001,0.00821533094787755,31539,30948
910.021073788255,0.0037103111666517,37734,37413
913.898249598708,0.0112229714189221,42531,41446
917.771112320529,0.00832035300580431,47850,46942
921.639661953718,0.0168113136563447,54912,52827
925.503898498276,0.013817444309125,63420,61434
929.363821954203,0.0217468595090594,73811,70206
933.219432321497,0.0203998429988216,84339,80469
937.070729600159,0.0175349864194446,94108,90384
942.199083389394,0.020276240180686,106742,101873
946.040316794582,0.0184311358939315,114870,110097
949.877237111139,0.0206828733412526,122775,117065
953.709844339064,0.0223526484672779,130106,123579
957.538138478358,0.0235112944242689,137426,130184
961.362119529019,0.0245946516563741,144249,136307
965.181787491049,0.0262595375549456,151347,142467
968.997142364448,0.0291547354101916,158854,148540
974.077572946662,0.0300594408704674,169604,158262
977.882863946587,0.0301624630355273,176601,164752
981.683841857879,0.0305732943886246,184607,172058
985.48050668054,0.0329530924262167,192377,178320
989.272858414569,0.0327508915229296,199674,185170
993.060897059966,0.0338904364514181,206891,191360
996.844622616732,0.0337325251057584,213081,197157
1000.62403508487,0.0345136503508222,219308,202554
1005.65654246006,0.0342208148607499,226918,209724
1009.42589105472,0.0355915638006604,232346,214064
1013.19092656075,0.0352834900875243,236843,218362
1016.95164897815,0.0359538067311317,241251,222083
1020.70805830691,0.0355322074123567,244875,225638
1024.46015454704,0.0369612959677521,249174,228845
1028.20793769854,0.0366670248338532,251411,231056
1031.95140776141,0.0366560812808458,253435,232922
1036.93599192959,0.0353285387201242,255420,235465
1040.66939811898,0.0358417709673855,256820,236476
1044.39849121975,0.0373048790217899,258286,237026
1048.12327123188,0.0367500599111313,259198,238167
1051.84373815538,0.0364101894076828,260099,239182
1055.55989199025,0.037230383053212,261118,239666
1059.27173273648,0.037356985297983,261508,239954
1064.21414448248,0.0364746272985649,261744,240659
1067.91592135525,0.0367541899546984,261721,240483
1071.61338513938,0.0366925899389174,262500,241233
1075.30653583488,0.0359026027582017,262553,241721
1078.99537344174,0.0369696945375871,263678,242161
1082.67989795998,0.036679700419883,264601,243171
1086.36010938958,0.03715849157853,265431,243665
1090.03600773056,0.0367208872467442,266142,244564
1094.93049626954,0.0359377839949591,268023,246737
1098.59633073703,0.0355431062116975,269707,248513
1102.2578521159,0.0362560632946859,271909,250131
1105.91506040614,0.0348255684484312,273184,252133
1109.56795560774,0.0348458454750745,274899,253704
1113.21653772071,0.0345225404999762,276835,255681
1116.86080674505,0.0346111201273099,278961,257592
1120.50076268076,0.0334406059212255,280421,259639
1125.34732801272,0.0327616869829905,282034,261541
1128.97722007495,0.0335745627392105,283767,262656
1132.60279904855,0.0334127002926577,284414,263353
1136.22406493352,0.0331057301451164,283831,262999
1139.84101772986,0.0329599293665157,281947,261341
1143.45365743757,0.0320130253047678,277661,257930
1147.06198405664,0.0316659138699398,272559,253393
1150.66599758709,0.0315258384110302,268385,249593
1155.46463971203,0.0325926286049369,266928,247629
1159.058589369,0.030153494479009,266133,248282
1162.64822593734,0.0304975557649539,263735,245850
1166.23354941704,0.030606539613807,259522,241862
1169.81455980812,0.0298318992217723,253659,236820
1173.39125711056,0.0310834304249618,248498,231334
1176.96364132437,0.0300365574539554,241559,225417
1180.53171244955,0.0291335446744037,231405,216391
1185.28243136747,0.0291865975155043,215182,201196
1188.84043861918,0.029389570704348,206165,192675
1192.39413278225,0.0289311813945745,204031,190882
1195.94351385669,0.029413682444154,208842,195166
1199.4885818425,0.0295314937485078,215308,201154
1203.02933673968,0.0289334648298143,221424,207153
1206.56577854822,0.0298192149932374,225929,210937
1210.09790726814,0.0295975095659475,228672,213607
1214.80070297904,0.029822600714146,236663,220957
1218.32276782548,0.031127383201479,249721,232449
1221.84051958329,0.031471234207292,267432,248738
1225.35395825247,0.0316369613311207,287645,267436
1228.86308383301,0.0306732084925415,308940,287873
1232.36789632493,0.031481312226884,329260,306237
1235.86839572821,0.0322232465409314,348268,323363
1240.52901901693,0.0324627129193408,370924,344209
1244.01945454674,0.0325259333444776,385571,357749
1247.50557698792,0.0326229588080846,398092,369284
1250.98738634046,0.0331764037036667,409822,379681
1254.46488260438,0.0335680212981151,420198,388943
1257.93806577966,0.0328571331337689,429766,398451
1261.40693586631,0.033414419132721,439111,406593
1264.87149286432,0.0336395881233281,448506,415077
1269.48419294603,0.033979732282811,459947,425332
1272.93868607057,0.0340159504420703,468675,433367
1276.38886610648,0.0339676534577124,476387,440547
1279.83473305376,0.0338278331059942,484005,447736
1283.27628691241,0.0337419228846583,491357,454627
1286.71352768243,0.0341382525993542,498200,460538
1290.14645536381,0.0344459022728917,505136,466619
1293.57506995657,0.0346722624395629,511533,472282
1298.13984683125,0.0343825875973841,519680,480124
1301.55839755053,0.0343413932154555,525435,485487
1304.97263518118,0.0344527504237505,530005,489584
1308.3825597232,0.0343776135029118,534876,494169
1311.78817117658,0.0344369626332282,539421,498300
1315.18946954133,0.0341663688344354,542310,501281
1318.58645481745,0.0344149865659599,545278,503736
1321.97912700494,0.0351173341883876,547634,505095
1326.49598067261,0.034243607878332,549417,507760
1329.87858898662,0.0342392233551237,549511,507852
1333.25688421201,0.0341622851991867,549167,507624
1336.63086634876,0.0339593043632234,547815,506611
1340.00053539688,0.0341309820396647,545404,504182
1343.36589135636,0.0347829043412814,541191,499537
1346.72693422722,0.0341262854911417,533580,493257
1350.08366400944,0.034426727488567,521874,482102
1354.55259447009,0.0339402854918585,495353,458115
1357.89926037884,0.033607743808794,471717,436590
1361.24161319896,0.034146820785318,451184,417068
1364.57965293045,0.0332661630668218,434457,402421
1367.9133795733,0.033222367129075,420248,389299
1371.24279312752,0.033859684589545,405797,375361
1374.56789359312,0.0332910505243432,390169,361378
1378.99465163159,0.0331099026653814,368941,341859
1382.30968822371,0.0331491147256068,353471,327495
1385.62041172719,0.0337837334144844,339973,314529
1388.92682214204,0.0341149434930146,326514,301847
1392.22891946827,0.0331318680237081,312410,289463
1395.52670370586,0.0341428637519994,302701,279815
1398.82017485482,0.0332288856556213,300264,278147
1402.10933291514,0.0333967440037217,304189,281674
1406.4881677466,0.034126821872959,305868,282753
1409.76726193345,0.0339965675489509,299982,277395
1413.04204303167,0.0340273664833241,292980,270901
1416.31251104126,0.0337600712310562,287923,266389
1419.57866596222,0.0344872292458877,286277,264423
1422.84050779454,0.034456825629485,284540,262837
1426.09803653824,0.0334967429416374,281114,260247
1429.3512521933,0.0339722362573289,278007,257089
1433.68216381773,0.0337911051547623,274537,253986
1436.92531559932,0.0347626358352859,273360,252332
1440.16415429228,0.0338296716828882,272955,252500
1443.3986798966,0.0333868780676012,273679,253428
1446.6288924123,0.0338153934547138,275402,254772
1449.85479183936,0.0340966624602766,276833,255930
1453.07637817779,0.0325997308706316,277824,257733
1456.29365142759,0.0335458016308018,279306,258544
1460.576639845,0.0333870231741772,280908,260122
1463.78384922132,0.0336962403143463,281750,260716
1466.98674550902,0.0333969584458703,282638,261718
1470.18532870808,0.0335832972118148,283481,262386
1473.37959881851,0.0332163299331887,284429,263486
1476.5695558403,0.0337211398373326,285164,263860
1479.75519977347,0.0338184847753375,285002,263651
1482.936530618,0.0330505318649649,284874,263999
1487.1715958284,0.0323427724899565,283642,263286
1490.34286279946,0.0344889447630212,284102,262413
1493.50981668188,0.0339753376848998,284481,263074
1496.67245747568,0.0336903798558976,285334,264036
1499.83078518084,0.0336691231040418,286392,265028
1502.98479979738,0.0343454283508241,287965,266069
1506.13450132528,0.0345570453623615,288846,266753
1510.3273941135,0.0345701247381658,289682,267517
1513.46703176792,0.0354245150290644,289353,266688
1516.60235633372,0.0341311048006651,288459,266657
1519.73336781088,0.0346049486580675,288266,266188
1522.86006619941,0.0344482641653504,287611,265679
1525.98245149931,0.0350523049657397,286434,264224
1529.10052371058,0.0341810495526408,284764,263211
1532.21428283322,0.0343668588156939,282627,261124
1536.35925241442,0.0353277781680687,279771,257914
1539.46294766358,0.0356360965222763,277016,255193
1542.56232982411,0.0359634367986175,273741,251986
1545.65739889601,0.0350924264420584,269630,248700
1548.74815487928,0.0354898726900415,265826,244967
1551.83459777391,0.0358521445598682,261759,241018
1554.91672757992,0.035364527646103,257485,237349
1557.99454429729,0.0361941291776646,253246,232996
1562.09159067147,0.0364268224233361,246636,226793
1565.15934351537,0.0358986869401776,241871,222682
1568.22278327063,0.0361557147346616,236441,217554
1571.28190993727,0.0360967951848365,231708,213228
1574.33672351527,0.0356345728069622,226758,208895
1577.38722400464,0.036933750589222,221619,203551
1580.43341140538,0.0375182275599987,216958,199002
1583.47528571749,0.0369750870402439,211702,194424
1587.52440888465,0.0369013203639635,205331,188605
1590.55621932328,0.0370274536420249,200782,184373
1593.58371667328,0.0386267247738039,196144,179452
1596.60690093465,0.0374909732598877,191379,175551
1599.62577210739,0.0365539328905801,186488,171434
1602.6403301915,0.0384348627249851,182239,166804
1605.65057518697,0.038614040827459,177516,162414
1608.65650709382,0.0381721686945486,172160,157674
1612.65770705396,0.0412415299391297,165753,150737
1615.65357508733,0.0371056289203106,159261,146219
1618.64513003206,0.0390894939098179,153459,140250
1621.63237188817,0.038429490876574,147641,135138
1624.61530065564,0.040017675728212,141560,129099
1627.59391633449,0.0383223965691629,135722,124259
1630.5682189247,0.0380205346182894,130406,119475
1633.53820842628,0.0387565590905698,125436,114727
1637.4914851794,0.0391086089343669,119758,109445
1640.4514108075,0.0401574787717542,115546,105341
1643.40702334698,0.0346776718094218,110576,102090
1646.35832279782,0.0384500618346058,107036,97967
1649.30530916003,0.036698348658442,102358,94064
1652.2479824336,0.0372216869954842,97582,89567
1655.18634261855,0.0351310514488522,92051,84898
1659.09744694949,0.0346506411625214,84083,77635
1662.02574326097,0.0312155054986552,77126,71777
1664.94972648381,0.0243181338184409,69102,65339
1667.86939661802,0.0208021223935576,60937,58087
1670.78475366359,0.0172842246523675,52362,50319
1673.69579762054,0.00879677755166269,43438,42567
1676.60252848885,0.0127128226896323,35115,34102
1679.50494626853,0.00331511710008879,26827,26623
1683.36812739246,0.00125322837255748,17005,16956
1686.26048129867,-0.023915738503782,10828,11441
1689.14852211624,-0.0421927735654881,6557,7226
1692.03224984519,0.0093283619872738,4047,3961
1694.9116644855,-0.0777048894465996,2210,2643
1697.78676603718,0.0130776024812259,1753,1701
1700.65755450023,0.0045992281169553,1329,1315
