***Scan Config Information***,,,,,,,***Reference Scan Information***,,,,,,,,
Scan Config Name:,Column 1,,,,,,Scan Config Name:,Built-in Factory Reference,,,,,,,
Scan Config Type:,Slew,Num Section:,1,,,,Scan Config Type:,Slew,Num Section:,1,,,,,
Section Config Type:,Column,,,,,,Section Config Type:,Column,,,,,,,
Start Wavelength (nm):,900,,,,,,Start Wavelength (nm):,900,,,,,,,
End Wavelength (nm):,1700,,,,,,End Wavelength (nm):,1700,,,,,,,
Pattern Width (nm):,7.03,,,,,,Pattern Width (nm):,7.03,,,,,,,
Exposure (ms):,0.635,,,,,,Exposure (ms):,0.635,,,,,,,
Digital Resolution:,228,,,,,,Digital Resolution:,228,,,,,,,
Num Repeats:,6,,,,,,Num Repeats:,30,,,,,,,
PGA Gain:,64,,,,,,PGA Gain:,64,,,,,,,
System Temp (C):,34.19,,,,,,System Temp (C):,27.24,,,,,,,
Humidity (%):,9.66,,,,,,Humidity (%):,42.33,,,,,,,
Lamp Intensity:,3093,,,,,,Lamp Intensity:,3003,,,,,,,
Data Date-Time:,2022/11/18T00:29:58,,,,,,Data Date-Time:,2021/11/04T14:10:50,,,,,,,
Total Measurement Time in sec:,3.2268174,,,,,,,,,,,,,,
,,,,,,,,,,,,,,,
***General Information***,,,,,,,***Calibration Coefficients***,,,,,,,,
Model Name:,NIR-S-G1,,,,,,Shift Vector Coefficients:,-5.53788089867561,0.0467532770725977,-9.86615555338903E-05,,,,,
Serial Number:,A43R020,(95UB122GC0AA43R020),,,,,Pixel to Wavelength Coefficients:,1754.84743575991,-0.928654795541597,-0.000239616035096235,,,,,
GUI Version:,3.7.6,,,,,,Versions (Cal/Ref/Cfg):,1,3,1,,,,,
TIVA Version:,2.4.7,,,,,,***Lamp Usage ***,,,,,,,,
DLPC Version:,2.2.0,,,,,,Total Time(hh:mm:ss):,11min 27sec ,,,,,,,
UUID:,DE:67:0C:88:67:3F:1D:21,,,,,,***Device/Error/Activation Status***,,,,,,,,
Main Board Version:,D,,,,,,Device Status:,0x00000101,Activation Status:,Activated,,,,,
Detector Board Version:,B,,,,,,Error status:,0x00000000,Error Code:,0x00000000000000000000000000000000,,,,,
,,,,,,,,,Error Details:,Not found,,,,,
***Scan Data***,,,,,,,,,,,,,,,
Wavelength (nm),Absorbance (AU),Reference Signal (unitless),Sample Signal (unitless)
900.957557108074,0.408659311682991,65443,25539
904.844796792001,0.421874404595946,82171,31106
910.021073788255,0.429682181943758,99678,37061
913.898249598708,0.436699666636262,110587,40458
917.771112320529,0.439318591872038,123185,44796
921.639661953718,0.439820769186106,139111,50529
925.503898498276,0.443613135594757,159569,57456
929.363821954203,0.445490962773723,183258,65701
933.219432321497,0.440593713136867,207371,75189
937.070729600159,0.437504553084813,229890,83949
942.199083389394,0.434825072761664,255937,94039
946.040316794582,0.429088852680478,272586,101488
949.877237111139,0.42755020495323,287311,107350
953.709844339064,0.426155545895285,300732,112726
957.538138478358,0.423271409454224,313797,118407
961.362119529019,0.423672052149178,326713,123167
965.181787491049,0.423670663334807,339646,128043
968.997142364448,0.425658932769035,353609,132698
974.077572946662,0.424628644372486,373087,140340
977.882863946587,0.424789913824804,388028,145906
981.683841857879,0.427000011096287,402790,150688
985.48050668054,0.427474309031982,417062,155857
989.272858414569,0.429141543630598,431192,160520
993.060897059966,0.430829376080885,444758,164928
996.844622616732,0.432168716407868,456216,168656
1000.62403508487,0.435010521489564,468463,172054
1005.65654246006,0.435795679481624,482450,176871
1009.42589105472,0.437107539053264,491458,179630
1013.19092656075,0.439220625120599,499843,181808
1016.95164897815,0.44024504307109,506896,183939
1020.70805830691,0.440459111644025,512583,185911
1024.46015454704,0.441314694743866,516710,187039
1028.20793769854,0.439673800338412,519030,188590
1031.95140776141,0.440646392023567,518900,188121
1036.93599192959,0.439003619211132,518793,188795
1040.66939811898,0.438778009036473,518378,188742
1044.39849121975,0.438331863517918,517629,188663
1048.12327123188,0.438485328992619,517016,188373
1051.84373815538,0.439051913265522,515671,187638
1055.55989199025,0.437475761129644,513781,187630
1059.27173273648,0.436862543742656,511708,187137
1064.21414448248,0.435797619920024,508349,186365
1067.91592135525,0.43743835656609,506188,184873
1071.61338513938,0.437023384646682,504263,184346
1075.30653583488,0.436300966410384,502196,183896
1078.99537344174,0.435724706520955,500791,183625
1082.67989795998,0.435778911242564,499607,183168
1086.36010938958,0.434610052364505,499034,183451
1090.03600773056,0.43458086806615,498043,183099
1094.93049626954,0.433730528822316,499075,183838
1098.59633073703,0.43360599910562,500696,184488
1102.2578521159,0.43498079746204,501788,184306
1105.91506040614,0.43510577781311,503305,184810
1109.56795560774,0.43552632954682,505112,185294
1113.21653772071,0.434217213660389,507576,186760
1116.86080674505,0.435669846097686,510261,187121
1120.50076268076,0.435453006234304,513048,188237
1125.34732801272,0.437863787515403,517118,188680
1128.97722007495,0.438391221573428,520581,189713
1132.60279904855,0.44181922401752,524427,189612
1136.22406493352,0.445339088663727,528466,189530
1139.84101772986,0.45172402840173,532886,188326
1143.45365743757,0.461700726529529,536838,185414
1147.06198405664,0.472422741951834,541119,182335
1150.66599758709,0.482134918375989,545478,179739
1155.46463971203,0.489339521975611,551844,178845
1159.058589369,0.493122825786935,557161,179002
1162.64822593734,0.499639909984608,562302,177963
1166.23354941704,0.511094108975795,568178,175142
1169.81455980812,0.524283997688573,574011,171647
1173.39125711056,0.538244860185442,580020,167957
1176.96364132437,0.553425398698711,586541,164011
1180.53171244955,0.576803982667925,592702,157048
1185.28243136747,0.612228816081968,603044,147272
1188.84043861918,0.634950937356732,610496,141492
1192.39413278225,0.643233922197457,618069,140541
1195.94351385669,0.639204968024476,626553,143798
1199.4885818425,0.629406000175428,634739,149001
1203.02933673968,0.625964169998966,642902,152118
1206.56577854822,0.624934291546779,651802,154590
1210.09790726814,0.627461871764907,661001,155862
1214.80070297904,0.62223598012934,673300,160684
1218.32276782548,0.607013585335406,682816,168768
1221.84051958329,0.587410334191068,693202,179246
1225.35395825247,0.564959707635376,703688,191611
1228.86308383301,0.543386402478122,714299,204406
1232.36789632493,0.524872999372638,724449,216339
1235.86839572821,0.51013154098058,735243,227143
1240.52901901693,0.493833932160802,749881,240524
1244.01945454674,0.485961360050965,760472,248383
1247.50557698792,0.47832841671236,769166,255677
1250.98738634046,0.472744392865709,778059,261980
1254.46488260438,0.468167482400514,786671,267686
1257.93806577966,0.465153050262891,795425,272550
1261.40693586631,0.460706110286627,803958,278309
1264.87149286432,0.457586335339396,812971,283458
1269.48419294603,0.45457644548864,824682,289541
1272.93868607057,0.452988925833792,834168,293944
1276.38886610648,0.450507856368906,843200,298829
1279.83473305376,0.449346746265954,852194,302825
1283.27628691241,0.44816585769388,860946,306768
1286.71352768243,0.447443228122804,868884,310112
1290.14645536381,0.44712635182642,877344,313360
1293.57506995657,0.446547009636368,885846,316819
1298.13984683125,0.445675215944594,896395,321236
1301.55839755053,0.44492032910409,903365,324297
1304.97263518118,0.444143992700237,910138,327313
1308.3825597232,0.444019265776566,917549,330073
1311.78817117658,0.444408990870051,924224,332176
1315.18946954133,0.44367813857628,929653,334690
1318.58645481745,0.443592498651401,934649,336555
1321.97912700494,0.44292858211043,939707,338894
1326.49598067261,0.443725207709944,945677,340422
1329.87858898662,0.443896994114218,950103,341880
1333.25688421201,0.443597848523431,953845,343463
1336.63086634876,0.444875055295736,957047,343604
1340.00053539688,0.446053660670009,959726,343632
1343.36589135636,0.447561868507058,961442,343053
1346.72693422722,0.451373257685719,962546,340446
1350.08366400944,0.458753594023311,963028,334877
1354.55259447009,0.47675902571769,961157,320653
1357.89926037884,0.494055859694866,960021,307769
1361.24161319896,0.51060013536436,959327,296051
1364.57965293045,0.523142467338821,958722,287442
1367.9133795733,0.534922724851893,958383,279651
1371.24279312752,0.548068119984074,958255,271277
1374.56789359312,0.562816456112015,957143,261915
1378.99465163159,0.581598040346523,953901,249980
1382.30968822371,0.59483940024146,950611,241637
1385.62041172719,0.606662509064446,946429,234113
1388.92682214204,0.619560498104776,942188,226244
1392.22891946827,0.6302314568996,937857,219738
1395.52670370586,0.634924413853385,933593,216388
1398.82017485482,0.628477680069778,929852,218744
1402.10933291514,0.614200480627154,927291,225432
1406.4881677466,0.601587840745824,924838,231461
1409.76726193345,0.599945795806839,922749,231813
1413.04204303167,0.599784911795479,921309,231537
1416.31251104126,0.595565339899341,919833,233423
1419.57866596222,0.588748876488406,918729,236831
1422.84050779454,0.581878558799131,917208,240209
1426.09803653824,0.578237874854954,915833,241868
1429.3512521933,0.575700869033787,915750,243263
1433.68216381773,0.571710160623576,915121,245340
1436.92531559932,0.568521798844777,913363,246673
1440.16415429228,0.5631018042535,912936,249654
1443.3986798966,0.558257057307534,911585,252081
1446.6288924123,0.553137050761244,910497,254766
1449.85479183936,0.547913579233001,908051,257156
1453.07637817779,0.542532053981657,905727,259696
1456.29365142759,0.537452598065927,903172,262010
1460.576639845,0.531049643536756,898347,264481
1463.78384922132,0.528041028152558,894476,265172
1466.98674550902,0.523536441798788,889693,266504
1470.18532870808,0.519803014270213,885619,267574
1473.37959881851,0.515945913595843,880836,268503
1476.5695558403,0.512772540149992,875537,268845
1479.75519977347,0.511957754984991,869901,267616
1482.936530618,0.509252680693498,864338,267566
1487.1715958284,0.506392037519018,856064,266756
1490.34286279946,0.505258338032738,849780,265490
1493.50981668188,0.502131703957034,843557,265450
1496.67245747568,0.497199966460818,836401,266204
1499.83078518084,0.493255797137224,829213,266324
1502.98479979738,0.489227770826537,821641,266351
1506.13450132528,0.484699664142315,814056,266658
1510.3273941135,0.480088151336679,803437,265989
1513.46703176792,0.477306524495469,794826,264829
1516.60235633372,0.474766578013285,785238,263169
1519.73336781088,0.471877068103588,777058,262166
1522.86006619941,0.469179140950245,768275,260818
1525.98245149931,0.466417203185665,758619,259183
1529.10052371058,0.464069545883275,748669,257170
1532.21428283322,0.46273440415149,738857,254581
1536.35925241442,0.460844721078718,725937,251220
1539.46294766358,0.459549709087778,715458,248333
1542.56232982411,0.458789308343417,704428,244933
1545.65739889601,0.457859164609757,693680,241713
1548.74815487928,0.457904226056794,682501,237793
1551.83459777391,0.458782910084674,671114,233353
1554.91672757992,0.457728387209087,659970,230036
1557.99454429729,0.457692765715334,647979,225875
1562.09159067147,0.458276166693698,631488,219831
1565.15934351537,0.458893168662908,619340,215296
1568.22278327063,0.460162011250302,606917,210362
1571.28190993727,0.459989898648654,594685,206204
1574.33672351527,0.460998827890844,582323,201449
1577.38722400464,0.462367030110158,569357,196344
1580.43341140538,0.463469013652523,556948,191578
1583.47528571749,0.463976832292249,544505,187079
1587.52440888465,0.466323208514239,527863,180384
1590.55621932328,0.466486408351692,515169,175980
1593.58371667328,0.467689909835957,502141,171055
1596.60690093465,0.470385445551159,490126,165929
1599.62577210739,0.471787089769882,477824,161243
1602.6403301915,0.473015366807435,465418,156613
1605.65057518697,0.474372276989749,452768,151881
1608.65650709382,0.475565993168622,439298,146958
1612.65770705396,0.479160153509949,420391,139474
1615.65357508733,0.482415067118755,406918,133996
1618.64513003206,0.485298829883255,394191,128946
1621.63237188817,0.491451997863813,381894,123166
1624.61530065564,0.496511446469264,369376,117749
1627.59391633449,0.502482845625826,357586,112434
1630.5682189247,0.505559913130281,345747,107944
1633.53820842628,0.507069263060412,334364,104028
1637.4914851794,0.510329549925928,319040,98518
1640.4514108075,0.509587094364702,307846,95224
1643.40702334698,0.510033710270889,296739,91694
1646.35832279782,0.510307837052037,284919,87986
1649.30530916003,0.509303736580882,273144,84545
1652.2479824336,0.507030862807894,260926,81187
1655.18634261855,0.508041676649996,248001,76986
1659.09744694949,0.499395550399717,228681,72416
1662.02574326097,0.495125351880207,212222,67868
1664.94972648381,0.484183697383984,193672,63516
1667.86939661802,0.472664612456851,173346,58378
1670.78475366359,0.46258182323795,152416,52535
1673.69579762054,0.457814229117876,131239,45735
1676.60252848885,0.466028010117256,111046,37973
1679.50494626853,0.481935068801416,93078,30684
1683.36812739246,0.56269715540146,72973,19974
1686.26048129867,0.673751386434112,60866,12901
1689.14852211624,0.815587131199465,50915,7785
1692.03224984519,0.93160343558014,42552,4981
1694.9116644855,1.09517418285792,35956,2888
1697.78676603718,1.13291067875737,30257,2228
1700.65755450023,1.24311437535121,25607,1463
