***Scan Config Information***,,,,,,,***Reference Scan Information***,,,,,,,,
Scan Config Name:,Column 1,,,,,,Scan Config Name:,Built-in Factory Reference,,,,,,,
Scan Config Type:,Slew,Num Section:,1,,,,Scan Config Type:,Slew,Num Section:,1,,,,,
Section Config Type:,Column,,,,,,Section Config Type:,Column,,,,,,,
Start Wavelength (nm):,900,,,,,,Start Wavelength (nm):,900,,,,,,,
End Wavelength (nm):,1700,,,,,,End Wavelength (nm):,1700,,,,,,,
Pattern Width (nm):,7.03,,,,,,Pattern Width (nm):,7.03,,,,,,,
Exposure (ms):,0.635,,,,,,Exposure (ms):,0.635,,,,,,,
Digital Resolution:,228,,,,,,Digital Resolution:,228,,,,,,,
Num Repeats:,6,,,,,,Num Repeats:,30,,,,,,,
PGA Gain:,64,,,,,,PGA Gain:,64,,,,,,,
System Temp (C):,32.62,,,,,,System Temp (C):,27.24,,,,,,,
Humidity (%):,13.21,,,,,,Humidity (%):,42.33,,,,,,,
Lamp Intensity:,3081,,,,,,Lamp Intensity:,3003,,,,,,,
Data Date-Time:,2022/11/26T19:16:22,,,,,,Data Date-Time:,2021/11/04T14:10:50,,,,,,,
Total Measurement Time in sec:,3.2497976,,,,,,,,,,,,,,
,,,,,,,,,,,,,,,
***General Information***,,,,,,,***Calibration Coefficients***,,,,,,,,
Model Name:,NIR-S-G1,,,,,,Shift Vector Coefficients:,-5.53788089867561,0.0467532770725977,-9.86615555338903E-05,,,,,
Serial Number:,A43R020,(95UB122GC0AA43R020),,,,,Pixel to Wavelength Coefficients:,1754.84743575991,-0.928654795541597,-0.000239616035096235,,,,,
GUI Version:,3.7.6,,,,,,Versions (Cal/Ref/Cfg):,1,3,1,,,,,
TIVA Version:,2.4.7,,,,,,***Lamp Usage ***,,,,,,,,
DLPC Version:,2.2.0,,,,,,Total Time(hh:mm:ss):,16min 6sec ,,,,,,,
UUID:,DE:67:0C:88:67:3F:1D:21,,,,,,***Device/Error/Activation Status***,,,,,,,,
Main Board Version:,D,,,,,,Device Status:,0x00000001,Activation Status:,Activated,,,,,
Detector Board Version:,B,,,,,,Error status:,0x00000000,Error Code:,0x00000000000000000000000000000000,,,,,
,,,,,,,,,Error Details:,Not found,,,,,
***Scan Data***,,,,,,,,,,,,,,,
Wavelength (nm),Absorbance (AU),Reference Signal (unitless),Sample Signal (unitless)
900.957557108074,0.382461432405953,65443,27127
904.844796792001,0.386946936674692,82171,33711
910.021073788255,0.399896332770527,99678,39692
913.898249598708,0.402348967284272,110587,43788
917.771112320529,0.404959385287866,123185,48484
921.639661953718,0.405977973119731,139111,54624
925.503898498276,0.406360315164906,159569,62602
929.363821954203,0.410326839495704,183258,71242
933.219432321497,0.407796788970702,207371,81087
937.070729600159,0.405279593641447,229890,90415
942.199083389394,0.403175775116764,255937,101148
946.040316794582,0.397543473395594,272586,109134
949.877237111139,0.396466450389884,287311,115315
953.709844339064,0.394949438009357,300732,121124
957.538138478358,0.39284506632022,313797,127000
961.362119529019,0.390893130331913,326713,132823
965.181787491049,0.391868693573955,339646,137771
968.997142364448,0.392122583194594,353609,143351
974.077572946662,0.393230255640572,373087,150862
977.882863946587,0.393780211541014,388028,156705
981.683841857879,0.395560984494424,402790,162001
985.48050668054,0.395018027509995,417062,167951
989.272858414569,0.397599710076676,431192,172612
993.060897059966,0.398693034104271,444758,177595
996.844622616732,0.400916458888676,456216,181240
1000.62403508487,0.401610886571116,468463,185808
1005.65654246006,0.403206389354639,482450,190654
1009.42589105472,0.404946860819947,491458,193437
1013.19092656075,0.406305086633844,499843,196123
1016.95164897815,0.407869997282049,506896,198175
1020.70805830691,0.407435434852472,512583,200599
1024.46015454704,0.408851135687557,516710,201556
1028.20793769854,0.408765288640722,519030,202501
1031.95140776141,0.407192027406293,518900,203185
1036.93599192959,0.407613611644106,518793,202946
1040.66939811898,0.406475004875914,518378,203316
1044.39849121975,0.405260024005197,517629,203591
1048.12327123188,0.405268349475344,517016,203346
1051.84373815538,0.405105644775552,515671,202893
1055.55989199025,0.405387972466521,513781,202018
1059.27173273648,0.405398547428867,511708,201198
1064.21414448248,0.403861355628424,508349,200586
1067.91592135525,0.404244878858129,506188,199557
1071.61338513938,0.402753389436465,504263,199482
1075.30653583488,0.401692938482122,502196,199150
1078.99537344174,0.402609839928929,500791,198174
1082.67989795998,0.401662931613487,499607,198137
1086.36010938958,0.402103696345087,499034,197709
1090.03600773056,0.401075684611768,498043,197784
1094.93049626954,0.399930793371247,499075,198717
1098.59633073703,0.399907778066154,500696,199373
1102.2578521159,0.400414133232199,501788,199575
1105.91506040614,0.400037562740008,503305,200352
1109.56795560774,0.399925947782317,505112,201123
1113.21653772071,0.401448081883035,507576,201397
1116.86080674505,0.4010521970334,510261,202647
1120.50076268076,0.40173232568851,513048,203435
1125.34732801272,0.402955810120061,517118,204472
1128.97722007495,0.405056585173802,520581,204848
1132.60279904855,0.407315132914482,524427,205291
1136.22406493352,0.411303443763352,528466,204981
1139.84101772986,0.418063494700967,532886,203503
1143.45365743757,0.427332665070492,536838,200683
1147.06198405664,0.43709504012493,541119,197787
1150.66599758709,0.448447513644895,545478,194236
1155.46463971203,0.45430571468208,551844,193870
1159.058589369,0.458635900336188,557161,193796
1162.64822593734,0.466103279740574,562302,192250
1166.23354941704,0.477531146884935,568178,189214
1169.81455980812,0.49128861280057,574011,185196
1173.39125711056,0.502927968218547,580020,182186
1176.96364132437,0.519606786441297,586541,177293
1180.53171244955,0.542351707381222,592702,170014
1185.28243136747,0.579301637994918,603044,158872
1188.84043861918,0.60063388486308,610496,153126
1192.39413278225,0.608653698177629,618069,152189
1195.94351385669,0.60561021506735,626553,155363
1199.4885818425,0.596974053370532,634739,160554
1203.02933673968,0.590637144449914,642902,165009
1206.56577854822,0.590882013087322,651802,167199
1210.09790726814,0.594053493371608,661001,168325
1214.80070297904,0.587924017007184,673300,173894
1218.32276782548,0.573915047988488,682816,182133
1221.84051958329,0.553768303681885,693202,193683
1225.35395825247,0.531078435576965,703688,207158
1228.86308383301,0.509523142280716,714299,220982
1232.36789632493,0.490895906027437,724449,233944
1235.86839572821,0.47598155468806,735243,245725
1240.52901901693,0.459918791654562,749881,260060
1244.01945454674,0.451542496373051,760472,268869
1247.50557698792,0.444442760293597,769166,276425
1250.98738634046,0.438444148681411,778059,283510
1254.46488260438,0.433952595250647,786671,289628
1257.93806577966,0.430435808034453,795425,295232
1261.40693586631,0.426136225166757,803958,301368
1264.87149286432,0.422970631088806,812971,306976
1269.48419294603,0.419255912606819,824682,314073
1272.93868607057,0.417991396843461,834168,318612
1276.38886610648,0.415719479331098,843200,323751
1279.83473305376,0.414816923029834,852194,327885
1283.27628691241,0.413619428481546,860946,332167
1286.71352768243,0.41219361018193,868884,336332
1290.14645536381,0.411863468023591,877344,339865
1293.57506995657,0.411317713036117,885846,343590
1298.13984683125,0.410474883605135,896395,348357
1301.55839755053,0.409862569099476,903365,351561
1304.97263518118,0.409419958430523,910138,354558
1308.3825597232,0.40924997354215,917549,357585
1311.78817117658,0.408328992625149,924224,360951
1315.18946954133,0.407937147222117,929653,363399
1318.58645481745,0.407939433968944,934649,365350
1321.97912700494,0.407680761295458,939707,367546
1326.49598067261,0.407974439366326,945677,369631
1329.87858898662,0.408675473195318,950103,370762
1333.25688421201,0.409146228990558,953845,371819
1336.63086634876,0.409466682282331,957047,372792
1340.00053539688,0.410021799003971,959726,373358
1343.36589135636,0.412307773828906,961442,372062
1346.72693422722,0.416099813441333,962546,369251
1350.08366400944,0.422741601648624,963028,363829
1354.55259447009,0.440983028360647,961157,348186
1357.89926037884,0.458295080143547,960021,334184
1361.24161319896,0.474705998341159,959327,321559
1364.57965293045,0.486480100291899,958722,312761
1367.9133795733,0.499062850475286,958383,303722
1371.24279312752,0.511882907765215,958255,294848
1374.56789359312,0.525477209990314,957143,285430
1378.99465163159,0.545213907366316,953901,271825
1382.30968822371,0.55957558382503,950611,262076
1385.62041172719,0.570238168979142,946429,254595
1388.92682214204,0.582232561760413,942188,246550
1392.22891946827,0.593266525859256,937857,239260
1395.52670370586,0.598836613804381,933593,235137
1398.82017485482,0.591185918837435,929852,238357
1402.10933291514,0.577594633035221,927291,245257
1406.4881677466,0.564834050220729,924838,251902
1409.76726193345,0.563283399701952,922749,252232
1413.04204303167,0.562367585963842,921309,252370
1416.31251104126,0.558504396969002,919833,254217
1419.57866596222,0.551105055030743,918729,258275
1422.84050779454,0.544159912324603,917208,262004
1426.09803653824,0.541006002596326,915833,263518
1429.3512521933,0.538291847611328,915750,265146
1433.68216381773,0.534367469830046,915121,267369
1436.92531559932,0.530434477515775,913363,269283
1440.16415429228,0.526090228026657,912936,271863
1443.3986798966,0.521370332323845,911585,274427
1446.6288924123,0.515214977136884,910497,278012
1449.85479183936,0.509195324411836,908051,281135
1453.07637817779,0.504405955273822,905727,283525
1456.29365142759,0.49946213936198,903172,285962
1460.576639845,0.493893326397624,898347,288105
1463.78384922132,0.490537125517492,894476,289089
1466.98674550902,0.485751819123286,889693,290729
1470.18532870808,0.482429619664105,885619,291620
1473.37959881851,0.477782935974938,880836,293165
1476.5695558403,0.475580339622248,875537,292883
1479.75519977347,0.473495432364516,869901,292398
1482.936530618,0.471696560150274,864338,291734
1487.1715958284,0.469481208396401,856064,290419
1490.34286279946,0.467163168705363,849780,289830
1493.50981668188,0.464772004790711,843557,289296
1496.67245747568,0.460007560178811,836401,290006
1499.83078518084,0.455989646028722,829213,290186
1502.98479979738,0.451228107040578,821641,290706
1506.13450132528,0.447339243910013,814056,290613
1510.3273941135,0.442544844841069,803437,290006
1513.46703176792,0.439610218077278,794826,288843
1516.60235633372,0.437403990304063,785238,286812
1519.73336781088,0.434725646708968,777058,285580
1522.86006619941,0.431208564579283,768275,284648
1525.98245149931,0.428773189326745,758619,282651
1529.10052371058,0.426906975120167,748669,280145
1532.21428283322,0.424942289279395,738857,277727
1536.35925241442,0.422638293923442,725937,274322
1539.46294766358,0.421502688395147,715458,271070
1542.56232982411,0.421260290884278,704428,267040
1545.65739889601,0.421173702165973,693680,263018
1548.74815487928,0.420146714315659,682501,259392
1551.83459777391,0.420690629997404,671114,254745
1554.91672757992,0.420290180725665,659970,250746
1557.99454429729,0.420629355044742,647979,245998
1562.09159067147,0.421244584322128,631488,239398
1565.15934351537,0.422154987596727,619340,234301
1568.22278327063,0.421173049830043,606917,230121
1571.28190993727,0.422143071796074,594685,224980
1574.33672351527,0.423337840387644,582323,219698
1577.38722400464,0.424585473646408,569357,214190
1580.43341140538,0.42557278679454,556948,209046
1583.47528571749,0.426627247168584,544505,203880
1587.52440888465,0.428749981539929,527863,196685
1590.55621932328,0.428915485215561,515169,191882
1593.58371667328,0.430790032284066,502141,186224
1596.60690093465,0.431579491406827,490126,181438
1599.62577210739,0.433094482696438,477824,176268
1602.6403301915,0.435271407972771,465418,170833
1605.65057518697,0.437818364277529,452768,165218
1608.65650709382,0.440287256642627,439298,159394
1612.65770705396,0.442481783560962,420391,151765
1615.65357508733,0.444791293422775,406918,146122
1618.64513003206,0.448280828568427,394191,140419
1621.63237188817,0.455013086257175,381894,133946
1624.61530065564,0.459458711147103,369376,128236
1627.59391633449,0.464581960191659,357586,122687
1630.5682189247,0.467616816758099,345747,117799
1633.53820842628,0.471021942181696,334364,113031
1637.4914851794,0.473387099535011,319040,107265
1640.4514108075,0.474695902501048,307846,103190
1643.40702334698,0.474115290372787,296739,99600
1646.35832279782,0.47373687037616,284919,95716
1649.30530916003,0.472660488509224,273144,91988
1652.2479824336,0.471043847500296,260926,88201
1655.18634261855,0.470272390335291,248001,83981
1659.09744694949,0.465157825110043,228681,78356
1662.02574326097,0.460302212289576,212222,73534
1664.94972648381,0.453008727018281,193672,68243
1667.86939661802,0.44417489379752,173346,62336
1670.78475366359,0.437198756372913,152416,55697
1673.69579762054,0.43574631920352,131239,48119
1676.60252848885,0.450734805950137,111046,39334
1679.50494626853,0.465614902963864,93078,31859
1683.36812739246,0.546185961620223,72973,20748
1686.26048129867,0.655523338320659,60866,13454
1689.14852211624,0.779989039153912,50915,8450
1692.03224984519,0.914422568662718,42552,5182
1694.9116644855,1.00787365419242,35956,3531
1697.78676603718,1.09898906526072,30257,2409
1700.65755450023,1.09428070969731,25607,2061
