***Scan Config Information***,,,,,,,***Reference Scan Information***,,,,,,,,
Scan Config Name:,Column 1,,,,,,Scan Config Name:,Built-in Factory Reference,,,,,,,
Scan Config Type:,Slew,Num Section:,1,,,,Scan Config Type:,Slew,Num Section:,1,,,,,
Section Config Type:,Column,,,,,,Section Config Type:,Column,,,,,,,
Start Wavelength (nm):,900,,,,,,Start Wavelength (nm):,900,,,,,,,
End Wavelength (nm):,1700,,,,,,End Wavelength (nm):,1700,,,,,,,
Pattern Width (nm):,7.03,,,,,,Pattern Width (nm):,7.03,,,,,,,
Exposure (ms):,0.635,,,,,,Exposure (ms):,0.635,,,,,,,
Digital Resolution:,228,,,,,,Digital Resolution:,228,,,,,,,
Num Repeats:,6,,,,,,Num Repeats:,30,,,,,,,
PGA Gain:,64,,,,,,PGA Gain:,64,,,,,,,
System Temp (C):,24.12,,,,,,System Temp (C):,27.24,,,,,,,
Humidity (%):,29.11,,,,,,Humidity (%):,42.33,,,,,,,
Lamp Intensity:,2989,,,,,,Lamp Intensity:,3003,,,,,,,
Data Date-Time:,2022/11/28T22:22:12,,,,,,Data Date-Time:,2021/11/04T14:10:50,,,,,,,
Total Measurement Time in sec:,3.2546451,,,,,,,,,,,,,,
,,,,,,,,,,,,,,,
***General Information***,,,,,,,***Calibration Coefficients***,,,,,,,,
Model Name:,NIR-S-G1,,,,,,Shift Vector Coefficients:,-5.53788089867561,0.0467532770725977,-9.86615555338903E-05,,,,,
Serial Number:,A43R020,(95UB122GC0AA43R020),,,,,Pixel to Wavelength Coefficients:,1754.84743575991,-0.928654795541597,-0.000239616035096235,,,,,
GUI Version:,3.7.6,,,,,,Versions (Cal/Ref/Cfg):,1,3,1,,,,,
TIVA Version:,2.4.7,,,,,,***Lamp Usage ***,,,,,,,,
DLPC Version:,2.2.0,,,,,,Total Time(hh:mm:ss):,17min 26sec ,,,,,,,
UUID:,DE:67:0C:88:67:3F:1D:21,,,,,,***Device/Error/Activation Status***,,,,,,,,
Main Board Version:,D,,,,,,Device Status:,0x00000101,Activation Status:,Activated,,,,,
Detector Board Version:,B,,,,,,Error status:,0x00000000,Error Code:,0x00000000000000000000000000000000,,,,,
,,,,,,,,,Error Details:,Not found,,,,,
***Scan Data***,,,,,,,,,,,,,,,
Wavelength (nm),Absorbance (AU),Reference Signal (unitless),Sample Signal (unitless)
900.957557108074,2.12566711976651,65443,490
904.844796792001,2.01709148096783,82171,790
910.021073788255,2.13054295363092,99678,738
913.898249598708,2.00034179867542,110587,1105
917.771112320529,2.02088973093437,123185,1174
921.639661953718,1.87384852833645,139111,1860
925.503898498276,2.01570990354528,159569,1539
929.363821954203,1.9598668851288,183258,2010
933.219432321497,2.00330265153701,207371,2058
937.070729600159,1.98677173426624,229890,2370
942.199083389394,2.04905684894187,255937,2286
946.040316794582,2.0026945417007,272586,2709
949.877237111139,2.0263455664559,287311,2704
953.709844339064,2.04027060700732,300732,2741
957.538138478358,1.97277231163805,313797,3341
961.362119529019,1.99107057726339,326713,3335
965.181787491049,1.97327876264327,339646,3612
968.997142364448,1.99915215774257,353609,3543
974.077572946662,1.98511031494123,373087,3861
977.882863946587,1.99958384406634,388028,3884
981.683841857879,1.99324920036054,402790,4091
985.48050668054,2.03496555817001,417062,3848
989.272858414569,1.99598180800228,431192,4352
993.060897059966,1.99859420266786,444758,4462
996.844622616732,2.01739904174186,456216,4383
1000.62403508487,2.02427156904259,468463,4430
1005.65654246006,2.01843448532581,482450,4624
1009.42589105472,2.0356759144529,491458,4527
1013.19092656075,2.04082221779726,499843,4550
1016.95164897815,2.03504436165768,506896,4676
1020.70805830691,2.02897558704732,512583,4795
1024.46015454704,2.00781082003646,516710,5075
1028.20793769854,2.04383445740673,519030,4692
1031.95140776141,2.05412337891884,518900,4581
1036.93599192959,2.04197320044914,518793,4710
1040.66939811898,2.05122834951158,518378,4607
1044.39849121975,2.09056255148245,517629,4202
1048.12327123188,2.00721302607539,517016,5085
1051.84373815538,2.04175582209751,515671,4684
1055.55989199025,2.08126650549685,513781,4261
1059.27173273648,2.06903795870715,511708,4365
1064.21414448248,2.08853267581259,508349,4146
1067.91592135525,2.05052065790784,506188,4506
1071.61338513938,2.07426817317656,504263,4250
1075.30653583488,2.06780897653597,502196,4296
1078.99537344174,2.04519118179912,500791,4513
1082.67989795998,2.06354707863934,499607,4316
1086.36010938958,2.0524131964529,499034,4423
1090.03600773056,2.06836727604299,498043,4255
1094.93049626954,2.06967471047307,499075,4251
1098.59633073703,2.07087873917247,500696,4253
1102.2578521159,2.04837066577364,501788,4489
1105.91506040614,2.05074715560202,503305,4478
1109.56795560774,2.06489842926089,505112,4350
1113.21653772071,2.09377777091182,507576,4090
1116.86080674505,2.06602090517963,510261,4383
1120.50076268076,2.03245981747733,513048,4761
1125.34732801272,2.05083182340749,517118,4600
1128.97722007495,2.08403102113568,520581,4290
1132.60279904855,2.08844426290678,524427,4278
1136.22406493352,2.04431661627168,528466,4772
1139.84101772986,2.03132778815887,532886,4958
1143.45365743757,2.08916309644328,536838,4372
1147.06198405664,2.13069026291223,541119,4005
1150.66599758709,2.08919868527419,545478,4442
1155.46463971203,2.08466482308486,551844,4541
1159.058589369,2.11657111008931,557161,4260
1162.64822593734,2.13035462247124,562302,4165
1166.23354941704,2.09723728383341,568178,4542
1169.81455980812,2.11124390179391,574011,4443
1173.39125711056,2.09861302783344,580020,4622
1176.96364132437,2.14083010281777,586541,4241
1180.53171244955,2.17700961564158,592702,3943
1185.28243136747,2.1552424253935,603044,4218
1188.84043861918,2.17141853541258,610496,4114
1192.39413278225,2.16768428003383,618069,4201
1195.94351385669,2.1569735657307,626553,4365
1199.4885818425,2.18780339134957,634739,4119
1203.02933673968,2.17538388832827,642902,4293
1206.56577854822,2.14722347766098,651802,4644
1210.09790726814,2.20614901052437,661001,4112
1214.80070297904,2.16838745641224,673300,4569
1218.32276782548,2.15288153339172,682816,4802
1221.84051958329,2.13491061214328,693202,5081
1225.35395825247,2.16424301357847,703688,4821
1228.86308383301,2.15734892215439,714299,4972
1232.36789632493,2.12440891757874,724449,5440
1235.86839572821,2.15344466483349,735243,5164
1240.52901901693,2.12602948861046,749881,5610
1244.01945454674,2.15590692687211,760472,5311
1247.50557698792,2.16976625266217,769166,5203
1250.98738634046,2.15049194461585,778059,5502
1254.46488260438,2.13756273208622,786671,5731
1257.93806577966,2.13203512711303,795425,5869
1261.40693586631,2.14255479740325,803958,5790
1264.87149286432,2.13214100504091,812971,5997
1269.48419294603,2.15293340674861,824682,5799
1272.93868607057,2.13174332151788,834168,6159
1276.38886610648,2.1530224028972,843200,5928
1279.83473305376,2.14321971553505,852194,6128
1283.27628691241,2.14195425277204,860946,6209
1286.71352768243,2.11830066536939,868884,6617
1290.14645536381,2.15281436395184,877344,6171
1293.57506995657,2.15954366141164,885846,6135
1298.13984683125,2.14368100032727,896395,6439
1301.55839755053,2.17901685153791,903365,5982
1304.97263518118,2.16260229581683,910138,6259
1308.3825597232,2.17234410220029,917549,6170
1311.78817117658,2.16788675891295,924224,6279
1315.18946954133,2.15654485350295,929653,6483
1318.58645481745,2.16122351685315,934649,6448
1321.97912700494,2.15338272923205,939707,6601
1326.49598067261,2.16665469525518,945677,6443
1329.87858898662,2.13578588481121,950103,6950
1333.25688421201,2.16971614239173,953845,6453
1336.63086634876,2.18868169433694,957047,6198
1340.00053539688,2.17623880538923,959726,6396
1343.36589135636,2.17898824022941,961442,6367
1346.72693422722,2.15903529125792,962546,6674
1350.08366400944,2.19314263743542,963028,6173
1354.55259447009,2.20507759459959,961157,5994
1357.89926037884,2.18612285622054,960021,6254
1361.24161319896,2.22358472596852,959327,5733
1364.57965293045,2.22803304604855,958722,5671
1367.9133795733,2.20658441242621,958383,5956
1371.24279312752,2.21752926796846,958255,5807
1374.56789359312,2.21056669599273,957143,5894
1378.99465163159,2.21145748996778,953901,5862
1382.30968822371,2.18870422426917,950611,6156
1385.62041172719,2.23462127748644,946429,5514
1388.92682214204,2.25166818274354,942188,5278
1392.22891946827,2.22170537559803,937857,5629
1395.52670370586,2.24768820086283,933593,5278
1398.82017485482,2.26349153830014,929852,5069
1402.10933291514,2.24912974989225,927291,5225
1406.4881677466,2.27960815538596,924838,4858
1409.76726193345,2.26916433038366,922749,4965
1413.04204303167,2.26068415375307,921309,5055
1416.31251104126,2.23763411608464,919833,5322
1419.57866596222,2.25357830417514,918729,5124
1422.84050779454,2.27834090843076,917208,4832
1426.09803653824,2.2274165457863,915833,5425
1429.3512521933,2.2406260835869,915750,5262
1433.68216381773,2.28570017988747,915121,4740
1436.92531559932,2.27660637703069,913363,4831
1440.16415429228,2.24144069516371,912936,5236
1443.3986798966,2.27738130863657,911585,4813
1446.6288924123,2.24704984955523,910497,5155
1449.85479183936,2.25275977814261,908051,5074
1453.07637817779,2.24216480195427,905727,5186
1456.29365142759,2.26433531305054,903172,4914
1460.576639845,2.27510787509812,898347,4768
1463.78384922132,2.24750401294323,894476,5059
1466.98674550902,2.25270905363414,889693,4972
1470.18532870808,2.24827692095407,885619,5000
1473.37959881851,2.2510802021672,880836,4941
1476.5695558403,2.2428704221807,875537,5005
1479.75519977347,2.24145632615051,869901,4989
1482.936530618,2.26292567031551,864338,4718
1487.1715958284,2.3241941913815,856064,4058
1490.34286279946,2.26768309630533,849780,4588
1493.50981668188,2.28603070226109,843557,4366
1496.67245747568,2.25552233232135,836401,4644
1499.83078518084,2.2250270759723,829213,4939
1502.98479979738,2.28425422745987,821641,4270
1506.13450132528,2.25686309422676,814056,4506
1510.3273941135,2.27974230266827,803437,4219
1513.46703176792,2.31436035480159,794826,3854
1516.60235633372,2.25511656632061,785238,4364
1519.73336781088,2.23849736643626,777058,4487
1522.86006619941,2.27549567662404,768275,4074
1525.98245149931,2.33065256329674,758619,3543
1529.10052371058,2.27429767316426,748669,3981
1532.21428283322,2.2618566508901,738857,4043
1536.35925241442,2.25333668917,725937,4051
1539.46294766358,2.27847325004956,715458,3768
1542.56232982411,2.25677200319295,704428,3900
1545.65739889601,2.25187995197936,693680,3884
1548.74815487928,2.27539472150807,682501,3620
1551.83459777391,2.23506405970551,671114,3906
1554.91672757992,2.24595642139572,659970,3746
1557.99454429729,2.28690521892654,647979,3347
1562.09159067147,2.32469391386177,631488,2990
1565.15934351537,2.31990443207239,619340,2965
1568.22278327063,2.28995018174911,606917,3113
1571.28190993727,2.22442579576571,594685,3547
1574.33672351527,2.26671554059334,582323,3151
1577.38722400464,2.2356878973232,569357,3309
1580.43341140538,2.32767915030813,556948,2619
1583.47528571749,2.24450010584793,544505,3101
1587.52440888465,2.30405420070773,527863,2621
1590.55621932328,2.31995664945618,515169,2466
1593.58371667328,2.4125764575566,502141,1942
1596.60690093465,2.41614989213291,490126,1880
1599.62577210739,2.3215236343938,477824,2279
1602.6403301915,2.30554923761198,465418,2303
1605.65057518697,2.28204457983227,452768,2365
1608.65650709382,2.39307179824413,439298,1777
1612.65770705396,2.42775375739184,420391,1570
1615.65357508733,2.34116298732462,406918,1855
1618.64513003206,2.33850827829176,394191,1808
1621.63237188817,2.28134735126429,381894,1998
1624.61530065564,2.35554758967017,369376,1629
1627.59391633449,2.28879877797258,357586,1839
1630.5682189247,2.3917007494548,345747,1403
1633.53820842628,2.39036138685616,334364,1361
1637.4914851794,2.32891354310312,319040,1496
1640.4514108075,2.25003644707919,307846,1731
1643.40702334698,2.45827430727686,296739,1033
1646.35832279782,2.31990704108124,284919,1364
1649.30530916003,2.52683563581257,273144,812
1652.2479824336,2.5005901448808,260926,824
1655.18634261855,2.26251413679969,248001,1355
1659.09744694949,2.30042459599844,228681,1145
1662.02574326097,2.87654129473018,212222,282
1664.94972648381,2.57779687644705,193672,512
1667.86939661802,2.41936988911815,173346,660
1670.78475366359,2.43952079510307,152416,554
1673.69579762054,2.50211286088254,131239,413
1676.60252848885,2.74015154995102,111046,202
1679.50494626853,2.38451581850784,93078,384
1683.36812739246,2.16943525201812,72973,494
1686.26048129867,2.68057104071149,60866,127
1689.14852211624,2.53658403270865,50915,148
1692.03224984519,2.05837703743063,42552,372
1694.9116644855,NaN,35956,-535
1697.78676603718,NaN,30257,-7
1700.65755450023,2.85205620070924,25607,36
