***Scan Config Information***,,,,,,,***Reference Scan Information***,,,,,,,,
Scan Config Name:,Column 1,,,,,,Scan Config Name:,Built-in Factory Reference,,,,,,,
Scan Config Type:,Slew,Num Section:,1,,,,Scan Config Type:,Slew,Num Section:,1,,,,,
Section Config Type:,Column,,,,,,Section Config Type:,Column,,,,,,,
Start Wavelength (nm):,900,,,,,,Start Wavelength (nm):,900,,,,,,,
End Wavelength (nm):,1700,,,,,,End Wavelength (nm):,1700,,,,,,,
Pattern Width (nm):,7.03,,,,,,Pattern Width (nm):,7.03,,,,,,,
Exposure (ms):,0.635,,,,,,Exposure (ms):,0.635,,,,,,,
Digital Resolution:,228,,,,,,Digital Resolution:,228,,,,,,,
Num Repeats:,6,,,,,,Num Repeats:,30,,,,,,,
PGA Gain:,64,,,,,,PGA Gain:,64,,,,,,,
System Temp (C):,25.31,,,,,,System Temp (C):,27.24,,,,,,,
Humidity (%):,27.95,,,,,,Humidity (%):,42.33,,,,,,,
Lamp Intensity:,3000,,,,,,Lamp Intensity:,3003,,,,,,,
Data Date-Time:,2022/11/28T22:22:37,,,,,,Data Date-Time:,2021/11/04T14:10:50,,,,,,,
Total Measurement Time in sec:,3.2450578,,,,,,,,,,,,,,
,,,,,,,,,,,,,,,
***General Information***,,,,,,,***Calibration Coefficients***,,,,,,,,
Model Name:,NIR-S-G1,,,,,,Shift Vector Coefficients:,-5.53788089867561,0.0467532770725977,-9.86615555338903E-05,,,,,
Serial Number:,A43R020,(95UB122GC0AA43R020),,,,,Pixel to Wavelength Coefficients:,1754.84743575991,-0.928654795541597,-0.000239616035096235,,,,,
GUI Version:,3.7.6,,,,,,Versions (Cal/Ref/Cfg):,1,3,1,,,,,
TIVA Version:,2.4.7,,,,,,***Lamp Usage ***,,,,,,,,
DLPC Version:,2.2.0,,,,,,Total Time(hh:mm:ss):,17min 34sec ,,,,,,,
UUID:,DE:67:0C:88:67:3F:1D:21,,,,,,***Device/Error/Activation Status***,,,,,,,,
Main Board Version:,D,,,,,,Device Status:,0x00000101,Activation Status:,Activated,,,,,
Detector Board Version:,B,,,,,,Error status:,0x00000000,Error Code:,0x00000000000000000000000000000000,,,,,
,,,,,,,,,Error Details:,Not found,,,,,
***Scan Data***,,,,,,,,,,,,,,,
Wavelength (nm),Absorbance (AU),Reference Signal (unitless),Sample Signal (unitless)
900.957557108074,2.04134623406647,65443,595
904.844796792001,1.84063388323002,82171,1186
910.021073788255,1.83903212222034,99678,1444
913.898249598708,1.90666662190703,110587,1371
917.771112320529,1.84677591175217,123185,1753
921.639661953718,1.87901596550428,139111,1838
925.503898498276,1.85250666684169,159569,2241
929.363821954203,1.94709259709237,183258,2070
933.219432321497,1.98289787686088,207371,2157
937.070729600159,1.96462363113382,229890,2494
942.199083389394,1.93014409875025,255937,3006
946.040316794582,2.0083421438079,272586,2674
949.877237111139,1.95184722132063,287311,3210
953.709844339064,1.9533941932256,300732,3348
957.538138478358,1.92610584739428,313797,3720
961.362119529019,2.02112682719831,326713,3112
965.181787491049,1.96411784905794,339646,3689
968.997142364448,1.96103684466479,353609,3868
974.077572946662,1.94311473385126,373087,4253
977.882863946587,1.95589989713505,388028,4295
981.683841857879,1.96291104545397,402790,4387
985.48050668054,1.99355235306177,417062,4233
989.272858414569,1.96359046195355,431192,4689
993.060897059966,1.98517715428305,444758,4602
996.844622616732,2.04427329636269,456216,4120
1000.62403508487,2.00387661159948,468463,4643
1005.65654246006,1.99583418116651,482450,4871
1009.42589105472,2.0235667236308,491458,4655
1013.19092656075,2.00256461770884,499843,4969
1016.95164897815,1.98683256936439,506896,5225
1020.70805830691,2.02743857988619,512583,4812
1024.46015454704,2.00465602147137,516710,5112
1028.20793769854,2.01104194401042,519030,5060
1031.95140776141,1.99558665408435,518900,5242
1036.93599192959,2.01403092941849,518793,5023
1040.66939811898,2.01969055951444,518378,4954
1044.39849121975,2.01132963139325,517629,5043
1048.12327123188,2.03181059132959,517016,4805
1051.84373815538,2.00234000943208,515671,5129
1055.55989199025,2.02809156144753,513781,4816
1059.27173273648,2.0321457747756,511708,4752
1064.21414448248,2.03111723761454,508349,4732
1067.91592135525,2.05830043570441,506188,4426
1071.61338513938,2.03905039510235,504263,4609
1075.30653583488,2.06278352724296,502196,4346
1078.99537344174,2.02866891230923,500791,4688
1082.67989795998,2.0107429898015,499607,4874
1086.36010938958,1.99855254442359,499034,5007
1090.03600773056,2.04136042228338,498043,4528
1094.93049626954,2.06967471047307,499075,4251
1098.59633073703,2.09653806563597,500696,4009
1102.2578521159,2.00829043540253,501788,4923
1105.91506040614,2.02687829679646,503305,4731
1109.56795560774,2.0662984126852,505112,4336
1113.21653772071,2.04151762431089,507576,4613
1116.86080674505,2.03736096647299,510261,4682
1120.50076268076,2.04843994125719,513048,4589
1125.34732801272,2.06974234478935,517118,4404
1128.97722007495,2.07333184770069,520581,4397
1132.60279904855,2.0599589479045,524427,4568
1136.22406493352,2.06816696070859,528466,4517
1139.84101772986,2.06881385457497,532886,4548
1143.45365743757,2.06897777171707,536838,4580
1147.06198405664,2.11807944853113,541119,4123
1150.66599758709,2.08637256961861,545478,4471
1155.46463971203,2.06759837940913,551844,4723
1159.058589369,2.1023306709747,557161,4402
1162.64822593734,2.06638231064128,562302,4826
1166.23354941704,2.07206855203977,568178,4813
1169.81455980812,2.0769557560401,574011,4808
1173.39125711056,2.09889500672999,580020,4619
1176.96364132437,2.09749609101654,586541,4686
1180.53171244955,2.11654649152344,592702,4532
1185.28243136747,2.17257239705528,603044,4053
1188.84043861918,2.10435111680212,610496,4801
1192.39413278225,2.16459393624053,618069,4231
1195.94351385669,2.11184334472575,626553,4843
1199.4885818425,2.13188558808219,634739,4685
1203.02933673968,2.17055499096901,642902,4341
1206.56577854822,2.15069747647484,651802,4607
1210.09790726814,2.16892410251345,661001,4480
1214.80070297904,2.12828421172547,673300,5011
1218.32276782548,2.12955278482206,682816,5067
1221.84051958329,2.14757265004792,693202,4935
1225.35395825247,2.11122276978834,703688,5447
1228.86308383301,2.11828114242582,714299,5440
1232.36789632493,2.1163412958307,724449,5542
1235.86839572821,2.14851087259088,735243,5223
1240.52901901693,2.15865506197707,749881,5204
1244.01945454674,2.13142419619634,760472,5619
1247.50557698792,2.10197366275009,769166,6082
1250.98738634046,2.11751863839854,778059,5936
1254.46488260438,2.1512654670714,786671,5553
1257.93806577966,2.13092657257111,795425,5884
1261.40693586631,2.13035159531189,803958,5955
1264.87149286432,2.11733326804394,812971,6205
1269.48419294603,2.14809255386375,824682,5864
1272.93868607057,2.12509564870122,834168,6254
1276.38886610648,2.12288338737734,843200,6354
1279.83473305376,2.13667827081692,852194,6221
1283.27628691241,2.12006273134295,860946,6530
1286.71352768243,2.13244266593228,868884,6405
1290.14645536381,2.14046458329188,877344,6349
1293.57506995657,2.13941750725917,885846,6426
1298.13984683125,2.12461344262954,896395,6728
1301.55839755053,2.12746118174162,903365,6736
1304.97263518118,2.13472104505135,910138,6674
1308.3825597232,2.1372680702809,917549,6689
1311.78817117658,2.13911945009543,924224,6709
1315.18946954133,2.12928300171755,929653,6903
1318.58645481745,2.1375014337374,934649,6810
1321.97912700494,2.15443668268583,939707,6585
1326.49598067261,2.15142170175076,945677,6673
1329.87858898662,2.16219294107705,950103,6540
1333.25688421201,2.1644981237381,953845,6531
1336.63086634876,2.14600416977963,957047,6838
1340.00053539688,2.16037179327997,959726,6634
1343.36589135636,2.1495209608614,961442,6814
1346.72693422722,2.18879404891218,962546,6232
1350.08366400944,2.17039161350493,963028,6505
1354.55259447009,2.16635416525308,961157,6553
1357.89926037884,2.19545835362827,960021,6121
1361.24161319896,2.17987740986146,959327,6340
1364.57965293045,2.1981464110642,958722,6075
1367.9133795733,2.19628046814864,958383,6099
1371.24279312752,2.21121835583119,958255,5892
1374.56789359312,2.18795516766065,957143,6209
1378.99465163159,2.21870399243947,953901,5765
1382.30968822371,2.20297523532977,950611,5957
1385.62041172719,2.22311817422711,946429,5662
1388.92682214204,2.24659631159901,942188,5340
1392.22891946827,2.27125991588133,937857,5022
1395.52670370586,2.23985992464971,933593,5374
1398.82017485482,2.22333903794148,929852,5560
1402.10933291514,2.22253198139845,927291,5555
1406.4881677466,2.24203569291947,924838,5297
1409.76726193345,2.21165374163964,922749,5668
1413.04204303167,2.2364576041353,921309,5345
1416.31251104126,2.22603935894337,919833,5466
1419.57866596222,2.21121585051146,918729,5649
1422.84050779454,2.23663784372326,917208,5319
1426.09803653824,2.24083054415313,915833,5260
1429.3512521933,2.24352442723883,915750,5227
1433.68216381773,2.21500001163152,915121,5578
1436.92531559932,2.24698489830885,913363,5172
1440.16415429228,2.20777738992146,912936,5658
1443.3986798966,2.21691499887665,911585,5532
1446.6288924123,2.25026310220265,910497,5117
1449.85479183936,2.233916321514,908051,5299
1453.07637817779,2.24434761276039,905727,5160
1456.29365142759,2.22945085308383,903172,5325
1460.576639845,2.23485940180286,898347,5231
1463.78384922132,2.20454551490017,894476,5585
1466.98674550902,2.22578450156856,889693,5290
1470.18532870808,2.22974285052589,885619,5218
1473.37959881851,2.20619375562191,880836,5479
1476.5695558403,2.24872341840013,875537,4938
1479.75519977347,2.29908778538012,869901,4369
1482.936530618,2.23494297442788,864338,5032
1487.1715958284,2.25553841978407,856064,4753
1490.34286279946,2.23751798113186,849780,4918
1493.50981668188,2.24514471516831,843557,4797
1496.67245747568,2.2033319694864,836401,5237
1499.83078518084,2.25553078717609,829213,4604
1502.98479979738,2.22104307632335,821641,4939
1506.13450132528,2.21701525545302,814056,4939
1510.3273941135,2.26997102799892,803437,4315
1513.46703176792,2.24725261402141,794826,4498
1516.60235633372,2.25342805505874,785238,4381
1519.73336781088,2.25809738973026,777058,4289
1522.86006619941,2.25620906121444,768275,4259
1525.98245149931,2.24233389651152,758619,4342
1529.10052371058,2.24753899706496,748669,4234
1532.21428283322,2.26955115240043,738857,3972
1536.35925241442,2.2338404683526,725937,4237
1539.46294766358,2.24605811059321,715458,4060
1542.56232982411,2.22968387684093,704428,4151
1545.65739889601,2.26945034140664,693680,3730
1548.74815487928,2.2819219532019,682501,3566
1551.83459777391,2.24484664028402,671114,3819
1554.91672757992,2.26298048595142,659970,3602
1557.99454429729,2.25417404922481,647979,3609
1562.09159067147,2.22679732914699,631488,3746
1565.15934351537,2.28718649350098,619340,3197
1568.22278327063,2.26791799810383,606917,3275
1571.28190993727,2.27804943907092,594685,3135
1574.33672351527,2.26961960622089,582323,3130
1577.38722400464,2.2581784837791,569357,3142
1580.43341140538,2.26941782200803,556948,2995
1583.47528571749,2.22855081118329,544505,3217
1587.52440888465,2.23964763804558,527863,3040
1590.55621932328,2.27151295561011,515169,2757
1593.58371667328,2.29156903108967,502141,2566
1596.60690093465,2.23197211540464,490126,2873
1599.62577210739,2.22579672585124,477824,2841
1602.6403301915,2.26096250552708,465418,2552
1605.65057518697,2.27277879495701,452768,2416
1608.65650709382,2.26218622298254,439298,2402
1612.65770705396,2.30768306434416,420391,2070
1615.65357508733,2.33627406723263,406918,1876
1618.64513003206,2.3929460170379,394191,1595
1621.63237188817,2.28418232405512,381894,1985
1624.61530065564,2.24401030712921,369376,2106
1627.59391633449,2.19831230086181,357586,2265
1630.5682189247,2.24407179620372,345747,1971
1633.53820842628,2.33811113224628,334364,1535
1637.4914851794,2.21514887604131,319040,1944
1640.4514108075,2.37372253072241,307846,1302
1643.40702334698,2.23508229122903,296739,1727
1646.35832279782,2.1963236073062,284919,1813
1649.30530916003,2.36746405337167,273144,1172
1652.2479824336,2.34316565419102,260926,1184
1655.18634261855,2.23820724161277,248001,1433
1659.09744694949,2.22219262788484,228681,1371
1662.02574326097,2.3639477218483,212222,918
1664.94972648381,2.33572931862696,193672,894
1667.86939661802,2.36327388765585,173346,751
1670.78475366359,2.27777451108305,152416,804
1673.69579762054,2.24069156666916,131239,754
1676.60252848885,2.14622973208004,111046,793
1679.50494626853,2.30232906232049,93078,464
1683.36812739246,2.327868080899,72973,343
1686.26048129867,2.53395475935855,60866,178
1689.14852211624,2.34701026576372,50915,229
1692.03224984519,NaN,42552,-171
1694.9116644855,1.99347850729904,35956,365
1697.78676603718,2.01693287627316,30257,291
1700.65755450023,1.74560086979495,25607,460
