***Scan Config Information***,,,,,,,***Reference Scan Information***,,,,,,,,
Scan Config Name:,Column 1,,,,,,Scan Config Name:,Local New Reference,,,,,,,
Scan Config Type:,Slew,Num Section:,1,,,,Scan Config Type:,Slew,Num Section:,1,,,,,
Section Config Type:,Column,,,,,,Section Config Type:,Column,,,,,,,
Start Wavelength (nm):,900,,,,,,Start Wavelength (nm):,900,,,,,,,
End Wavelength (nm):,1700,,,,,,End Wavelength (nm):,1700,,,,,,,
Pattern Width (nm):,7.03,,,,,,Pattern Width (nm):,7.03,,,,,,,
Exposure (ms):,0.635,,,,,,Exposure (ms):,0.635,,,,,,,
Digital Resolution:,228,,,,,,Digital Resolution:,228,,,,,,,
Num Repeats:,6,,,,,,Num Repeats:,6,,,,,,,
PGA Gain:,64,,,,,,PGA Gain:,64,,,,,,,
System Temp (C):,26.26,,,,,,System Temp (C):,25.78,,,,,,,
Humidity (%):,34.29,,,,,,Humidity (%):,34.72,,,,,,,
Lamp Intensity:,3015,,,,,,Lamp Intensity:,3010,,,,,,,
Data Date-Time:,2022/10/10T03:05:23,,,,,,Data Date-Time:,2022/10/10T03:04:56,,,,,,,
Total Measurement Time in sec:,3.1722447,,,,,,,,,,,,,,
,,,,,,,,,,,,,,,
***General Information***,,,,,,,***Calibration Coefficients***,,,,,,,,
Model Name:,NIR-S-G1,,,,,,Shift Vector Coefficients:,-5.53788089867561,0.0467532770725977,-9.86615555338903E-05,,,,,
Serial Number:,A43R020,(95UB122GC0AA43R020),,,,,Pixel to Wavelength Coefficients:,1754.84743575991,-0.928654795541597,-0.000239616035096235,,,,,
GUI Version:,3.7.6,,,,,,Versions (Cal/Ref/Cfg):,1,3,1,,,,,
TIVA Version:,2.4.7,,,,,,***Lamp Usage ***,,,,,,,,
DLPC Version:,2.2.0,,,,,,Total Time(hh:mm:ss):,9min 8sec ,,,,,,,
UUID:,DE:67:0C:88:67:3F:1D:21,,,,,,***Device/Error/Activation Status***,,,,,,,,
Main Board Version:,D,,,,,,Device Status:,0x00000001,Activation Status:,Activated,,,,,
Detector Board Version:,B,,,,,,Error status:,0x00000000,Error Code:,0x00000000000000000000000000000000,,,,,
,,,,,,,,,Error Details:,Not found,,,,,
***Scan Data***,,,,,,,,,,,,,,,
Wavelength (nm),Absorbance (AU),Reference Signal (unitless),Sample Signal (unitless)
900.957557108074,0.0408655781813746,25032,22784
904.844796792001,0.050095235744313,31539,28103
910.021073788255,0.0404648709663306,37734,34377
913.898249598708,0.0472565896393783,42531,38146
917.771112320529,0.0449212720522238,47850,43148
921.639661953718,0.0477727817960007,54912,49192
925.503898498276,0.0454228327997416,63420,57122
929.363821954203,0.0505358893338555,73811,65703
933.219432321497,0.0488990835486113,84339,75358
937.070729600159,0.0482938212352563,94108,84204
942.199083389394,0.0479365043390311,106742,95587
946.040316794582,0.048889977700478,114870,102640
949.877237111139,0.0483336033318863,122775,109844
953.709844339064,0.0510728348886653,130106,115671
957.538138478358,0.0511363266931689,137426,122161
961.362119529019,0.0524766247656641,144249,127831
965.181787491049,0.053735229654731,151347,133733
968.997142364448,0.0535784648651322,158854,140417
974.077572946662,0.0555945030305818,169604,149225
977.882863946587,0.0529813903074602,176601,156319
981.683841857879,0.055036821099952,184607,162634
985.48050668054,0.0560865952404279,192377,169070
989.272858414569,0.0561656702302451,199674,175451
993.060897059966,0.0553362665199107,206891,182140
996.844622616732,0.0556337968681864,213081,187461
1000.62403508487,0.0554251639103654,219308,193032
1005.65654246006,0.0535683292017104,226918,200586
1009.42589105472,0.0549791701499188,232346,204718
1013.19092656075,0.0560382387992928,236843,208172
1016.95164897815,0.0564078549483437,241251,211866
1020.70805830691,0.0537092690965552,244875,216389
1024.46015454704,0.0558127768511345,249174,219124
1028.20793769854,0.0541643485428358,251411,221932
1031.95140776141,0.053802799957198,253435,223905
1036.93599192959,0.0535790496110767,255420,225775
1040.66939811898,0.0535723744583748,256820,227016
1044.39849121975,0.0538708757945582,258286,228155
1048.12327123188,0.0532086518187097,259198,229310
1051.84373815538,0.0524168839202269,260099,230527
1055.55989199025,0.0529335187775203,261118,231155
1059.27173273648,0.05203630728255,261508,231979
1064.21414448248,0.0518854849149221,261744,232269
1067.91592135525,0.0511989875610576,261721,232616
1071.61338513938,0.0515292811807009,262500,233131
1075.30653583488,0.0506511996546772,262553,233650
1078.99537344174,0.049861908740746,263678,235078
1082.67989795998,0.0501637287940639,264601,235737
1086.36010938958,0.0507342693487736,265431,236166
1090.03600773056,0.0495650198327594,266142,237437
1094.93049626954,0.0481617299206522,268023,239889
1098.59633073703,0.0479409164782375,269707,241519
1102.2578521159,0.0484653693559958,271909,243197
1105.91506040614,0.0478745377669215,273184,244670
1109.56795560774,0.0483086756408402,274899,245960
1113.21653772071,0.0474279685236034,276835,248195
1116.86080674505,0.0474315359556813,278961,250099
1120.50076268076,0.0459724721122044,280421,252254
1125.34732801272,0.045837228704194,282034,253784
1128.97722007495,0.046876678494007,283767,254733
1132.60279904855,0.0465923629051155,284414,255481
1136.22406493352,0.0463323445659151,283831,255110
1139.84101772986,0.0457408894265791,281947,253762
1143.45365743757,0.0450696499788375,277661,250291
1147.06198405664,0.0448344793323527,272559,245825
1150.66599758709,0.0450774897954455,268385,241925
1155.46463971203,0.0451057296995683,266928,240596
1159.058589369,0.0453075089337577,266133,239768
1162.64822593734,0.0434791276577639,263735,238610
1166.23354941704,0.0445743082607699,259522,234207
1169.81455980812,0.0435205751793074,253659,229472
1173.39125711056,0.0433006155814314,248498,224917
1176.96364132437,0.0434326707903585,241559,218570
1180.53171244955,0.0419735591040502,231405,210087
1185.28243136747,0.0420681182168857,215182,195316
1188.84043861918,0.0424290737322207,206165,186976
1192.39413278225,0.0417152834587525,204031,185345
1195.94351385669,0.0426534646084134,208842,189306
1199.4885818425,0.0421711703469173,215308,195384
1203.02933673968,0.0428028437630822,221424,200642
1206.56577854822,0.0430408796180475,225929,204612
1210.09790726814,0.0418726889268205,228672,207654
1214.80070297904,0.0407939459103564,236663,215445
1218.32276782548,0.0412761798281428,249721,227080
1221.84051958329,0.0419199748222803,267432,242825
1225.35395825247,0.0401181485874345,287645,262264
1228.86308383301,0.0401196719524029,308940,281679
1232.36789632493,0.0399576107944613,329260,300318
1235.86839572821,0.0396162133589364,348268,317905
1240.52901901693,0.0398135140544,370924,338432
1244.01945454674,0.039711012728684,385571,351879
1247.50557698792,0.0393416595324834,398092,363615
1250.98738634046,0.0393220714976493,409822,374346
1254.46488260438,0.0393829588448338,420198,383770
1257.93806577966,0.0379783996129039,429766,393780
1261.40693586631,0.0387157326596869,439111,401660
1264.87149286432,0.0382689339751555,448506,410676
1269.48419294603,0.0383112045822907,459947,421111
1272.93868607057,0.0384479044271836,468675,428967
1276.38886610648,0.0374397078366724,476387,437039
1279.83473305376,0.0373720087321325,484005,444097
1283.27628691241,0.0369837823097231,491357,451246
1286.71352768243,0.0367829603659472,498200,457742
1290.14645536381,0.0367256391764407,505136,464176
1293.57506995657,0.0366390631746001,511533,470148
1298.13984683125,0.0364016989807597,519680,477897
1301.55839755053,0.0363803887061782,525435,483213
1304.97263518118,0.0356154780079561,530005,488275
1308.3825597232,0.0359121359148589,534876,492426
1311.78817117658,0.036173949004785,539421,496311
1315.18946954133,0.0354044409133994,542310,499854
1318.58645481745,0.035723107365409,545278,502221
1321.97912700494,0.0356120165259001,547634,504520
1326.49598067261,0.0355868160192663,549417,506192
1329.87858898662,0.0352006308767504,549511,506729
1333.25688421201,0.0352098775345002,549167,506401
1336.63086634876,0.0353580216784816,547815,504982
1340.00053539688,0.0356868416216367,545404,502379
1343.36589135636,0.0357786317068053,541191,498393
1346.72693422722,0.0358925590382491,533580,491255
1350.08366400944,0.0357303891475682,521874,480657
1354.55259447009,0.0358071183488032,495353,456150
1357.89926037884,0.0359316998458587,471717,434260
1361.24161319896,0.0364814398502044,451184,414832
1364.57965293045,0.0363343615149951,434457,399588
1367.9133795733,0.0359619314326258,420248,386851
1371.24279312752,0.0362264115462214,405797,373321
1374.56789359312,0.0363373894975422,390169,358852
1378.99465163159,0.0363717809527378,368941,339301
1382.30968822371,0.0368086407844166,353471,324747
1385.62041172719,0.0373970284422497,339973,311923
1388.92682214204,0.0379431211888501,326514,299198
1392.22891946827,0.037918748308098,312410,286290
1395.52670370586,0.0386093499521336,302701,276952
1398.82017485482,0.039271125113805,300264,274304
1402.10933291514,0.0396943196297916,304189,277619
1406.4881677466,0.0407509498297114,305868,278473
1409.76726193345,0.0401267503437052,299982,273507
1413.04204303167,0.0413771209205698,292980,266355
1416.31251104126,0.0414145570773157,287923,261735
1419.57866596222,0.0417663418095598,286277,260028
1422.84050779454,0.0422711977913489,284540,258150
1426.09803653824,0.041229882667999,281114,255654
1429.3512521933,0.041424710845155,278007,252715
1433.68216381773,0.0419308699353425,274537,249270
1436.92531559932,0.0407432226980576,273360,248881
1440.16415429228,0.0412787784438503,272955,248206
1443.3986798966,0.0408450824526377,273679,249113
1446.6288924123,0.0404941245400738,275402,250884
1449.85479183936,0.0402472503073706,276833,252331
1453.07637817779,0.0397318385294361,277824,253535
1456.29365142759,0.0399575487055176,279306,254755
1460.576639845,0.0408571586521895,280908,255686
1463.78384922132,0.0401978816578407,281750,256842
1466.98674550902,0.0408279002778607,282638,257278
1470.18532870808,0.039432166577186,283481,258876
1473.37959881851,0.0398750063023996,284429,259477
1476.5695558403,0.0396989535091706,285164,260253
1479.75519977347,0.0395689907310132,285002,260183
1482.936530618,0.0402594689297703,284874,259653
1487.1715958284,0.0401436978505494,283642,258599
1490.34286279946,0.0406711473541507,284102,258704
1493.50981668188,0.0406294354171374,284481,259074
1496.67245747568,0.0399744679492783,285334,260243
1499.83078518084,0.0411264810020857,286392,260516
1502.98479979738,0.0411727017627577,287965,261919
1506.13450132528,0.0406363066429609,288846,263045
1510.3273941135,0.0418534871982226,289682,263068
1513.46703176792,0.0412048111459664,289353,263162
1516.60235633372,0.0412725574909208,288459,262308
1519.73336781088,0.0401217915576017,288266,262828
1522.86006619941,0.0407230607711139,287611,261868
1525.98245149931,0.0397439066115737,286434,261385
1529.10052371058,0.0402222220347012,284764,259575
1532.21428283322,0.0397943030028296,282627,257881
1536.35925241442,0.0403987853633353,279771,254920
1539.46294766358,0.0411146536281898,277016,251994
1542.56232982411,0.0418055341441653,273741,248619
1545.65739889601,0.0399990862465535,269630,245906
1548.74815487928,0.04027451375502,265826,242283
1551.83459777391,0.0393656418495862,261759,239076
1554.91672757992,0.0403202706171254,257485,234656
1557.99454429729,0.0397802355710502,253246,231080
1562.09159067147,0.0401500561956834,246636,224857
1565.15934351537,0.0401968723935595,241871,220489
1568.22278327063,0.0393615348177264,236441,215954
1571.28190993727,0.0395505815941854,231708,211539
1574.33672351527,0.0392147891360451,226758,207180
1577.38722400464,0.0404384075919733,221619,201915
1580.43341140538,0.040969122464084,216958,197427
1583.47528571749,0.0397155909491072,211702,193201
1587.52440888465,0.0400814045352325,205331,187229
1590.55621932328,0.0412121109494407,200782,182605
1593.58371667328,0.0421843046578275,196144,177988
1596.60690093465,0.0422620119882794,191379,173633
1599.62577210739,0.0408231997307051,186488,169757
1602.6403301915,0.0426996374643294,182239,165174
1605.65057518697,0.0421608339370748,177516,161093
1608.65650709382,0.0426656979468765,172160,156051
1612.65770705396,0.0447533954822114,165753,149523
1615.65357508733,0.0431020154848149,159261,144214
1618.64513003206,0.0441445389805435,153459,138627
1621.63237188817,0.045355337123935,147641,133000
1624.61530065564,0.0460746245230389,141560,127311
1627.59391633449,0.0451563288740202,135722,122319
1630.5682189247,0.0447610169913679,130406,117635
1633.53820842628,0.0456974818633613,125436,112908
1637.4914851794,0.0492252755987271,119758,106925
1640.4514108075,0.0477180666055185,115546,103523
1643.40702334698,0.0444085052797447,110576,99828
1646.35832279782,0.048558942038861,107036,95713
1649.30530916003,0.0477145691997208,102358,91708
1652.2479824336,0.0481018338069178,97582,87351
1655.18634261855,0.0508878066923585,92051,81873
1659.09744694949,0.0494964057812406,84083,75026
1662.02574326097,0.0511363336995622,77126,68559
1664.94972648381,0.0482492287120114,69102,61836
1667.86939661802,0.0538082851320925,60937,53836
1670.78475366359,0.0567023571806617,52362,45953
1673.69579762054,0.0498223239925079,43438,38730
1676.60252848885,0.0547758944953537,35115,30954
1679.50494626853,0.055604902874714,26827,23603
1683.36812739246,0.047278315192929,17005,15251
1686.26048129867,0.0644804505493317,10828,9334
1689.14852211624,0.0345910361874443,6557,6055
1692.03224984519,0.0487846956299469,4047,3617
1694.9116644855,-0.00817611249419789,2210,2252
1697.78676603718,0.0542916023944274,1753,1547
1700.65755450023,0.101096609757245,1329,1053
