***Scan Config Information***,,,,,,,***Reference Scan Information***,,,,,,,,
Scan Config Name:,Column 1,,,,,,Scan Config Name:,Built-in Factory Reference,,,,,,,
Scan Config Type:,Slew,Num Section:,1,,,,Scan Config Type:,Slew,Num Section:,1,,,,,
Section Config Type:,Column,,,,,,Section Config Type:,Column,,,,,,,
Start Wavelength (nm):,900,,,,,,Start Wavelength (nm):,900,,,,,,,
End Wavelength (nm):,1700,,,,,,End Wavelength (nm):,1700,,,,,,,
Pattern Width (nm):,7.03,,,,,,Pattern Width (nm):,7.03,,,,,,,
Exposure (ms):,0.635,,,,,,Exposure (ms):,0.635,,,,,,,
Digital Resolution:,228,,,,,,Digital Resolution:,228,,,,,,,
Num Repeats:,6,,,,,,Num Repeats:,30,,,,,,,
PGA Gain:,64,,,,,,PGA Gain:,64,,,,,,,
System Temp (C):,34.01,,,,,,System Temp (C):,27.24,,,,,,,
Humidity (%):,9.56,,,,,,Humidity (%):,42.33,,,,,,,
Lamp Intensity:,3090,,,,,,Lamp Intensity:,3003,,,,,,,
Data Date-Time:,2022/11/18T00:35:02,,,,,,Data Date-Time:,2021/11/04T14:10:50,,,,,,,
Total Measurement Time in sec:,3.2270047,,,,,,,,,,,,,,
,,,,,,,,,,,,,,,
***General Information***,,,,,,,***Calibration Coefficients***,,,,,,,,
Model Name:,NIR-S-G1,,,,,,Shift Vector Coefficients:,-5.53788089867561,0.0467532770725977,-9.86615555338903E-05,,,,,
Serial Number:,A43R020,(95UB122GC0AA43R020),,,,,Pixel to Wavelength Coefficients:,1754.84743575991,-0.928654795541597,-0.000239616035096235,,,,,
GUI Version:,3.7.6,,,,,,Versions (Cal/Ref/Cfg):,1,3,1,,,,,
TIVA Version:,2.4.7,,,,,,***Lamp Usage ***,,,,,,,,
DLPC Version:,2.2.0,,,,,,Total Time(hh:mm:ss):,11min 40sec ,,,,,,,
UUID:,DE:67:0C:88:67:3F:1D:21,,,,,,***Device/Error/Activation Status***,,,,,,,,
Main Board Version:,D,,,,,,Device Status:,0x00000101,Activation Status:,Activated,,,,,
Detector Board Version:,B,,,,,,Error status:,0x00000000,Error Code:,0x00000000000000000000000000000000,,,,,
,,,,,,,,,Error Details:,Not found,,,,,
***Scan Data***,,,,,,,,,,,,,,,
Wavelength (nm),Absorbance (AU),Reference Signal (unitless),Sample Signal (unitless)
900.957557108074,0.441830104249337,65443,23661
904.844796792001,0.449142413554344,82171,29213
910.021073788255,0.458032107611266,99678,34719
913.898249598708,0.457758561687456,110587,38543
917.771112320529,0.448726909586426,123185,43836
921.639661953718,0.453289494393226,139111,48986
925.503898498276,0.453877295557095,159569,56114
929.363821954203,0.451722572687434,183258,64765
933.219432321497,0.445864433609866,207371,74282
937.070729600159,0.440551954712643,229890,83362
942.199083389394,0.431640953169506,255937,94731
946.040316794582,0.423371040848242,272586,102833
949.877237111139,0.418307972568899,287311,109659
953.709844339064,0.41399129910395,300732,115928
957.538138478358,0.409105161109073,313797,122333
961.362119529019,0.405520222830099,326713,128424
965.181787491049,0.404917835549001,339646,133693
968.997142364448,0.402991287046277,353609,139808
974.077572946662,0.400443530630538,373087,148377
977.882863946587,0.397722372023822,388028,155289
981.683841857879,0.39727202893534,402790,161364
985.48050668054,0.395478551184338,417062,167773
989.272858414569,0.394840874208613,431192,173712
993.060897059966,0.395149443267755,444758,179050
996.844622616732,0.393223576606404,456216,184479
1000.62403508487,0.391462499313368,468463,190201
1005.65654246006,0.390968073146582,482450,196103
1009.42589105472,0.389393693104801,491458,200490
1013.19092656075,0.387497300461595,499843,204803
1016.95164897815,0.385931549057532,506896,208443
1020.70805830691,0.384433293310302,512583,211510
1024.46015454704,0.381081188891136,516710,214865
1028.20793769854,0.379129176595693,519030,216802
1031.95140776141,0.376111509635768,518900,218259
1036.93599192959,0.371967782322832,518793,220306
1040.66939811898,0.36945717588288,518378,221406
1044.39849121975,0.366481733660733,517629,222606
1048.12327123188,0.363345159632644,517016,223954
1051.84373815538,0.360922352129918,515671,224621
1055.55989199025,0.357849176749782,513781,225387
1059.27173273648,0.355246341568987,511708,225827
1064.21414448248,0.351571466163809,508349,226251
1067.91592135525,0.349634967846804,506188,226296
1071.61338513938,0.347029372305531,504263,226792
1075.30653583488,0.34447447983067,502196,227195
1078.99537344174,0.342850776626557,500791,227408
1082.67989795998,0.339863967750089,499607,228436
1086.36010938958,0.337580267478972,499034,229377
1090.03600773056,0.335070973984446,498043,230248
1094.93049626954,0.33211660563996,499075,232300
1098.59633073703,0.330551327152081,500696,233896
1102.2578521159,0.329448712796029,501788,235002
1105.91506040614,0.327911964380276,503305,236548
1109.56795560774,0.32708270454593,505112,237851
1113.21653772071,0.325023913268281,507576,240147
1116.86080674505,0.324862652682643,510261,241507
1120.50076268076,0.323882034423756,513048,243375
1125.34732801272,0.323554080104557,517118,245491
1128.97722007495,0.324909303766876,520581,246365
1132.60279904855,0.326280081577778,524427,247403
1136.22406493352,0.330137275662044,528466,247104
1139.84101772986,0.337365425822641,532886,245058
1143.45365743757,0.34597225453925,536838,242031
1147.06198405664,0.356880086341268,541119,237910
1150.66599758709,0.366362233428116,545478,234647
1155.46463971203,0.373440172448656,551844,233548
1159.058589369,0.377876136037769,557161,233402
1162.64822593734,0.385579999013928,562302,231414
1166.23354941704,0.39667339639202,568178,227935
1169.81455980812,0.410854961666549,574011,222877
1173.39125711056,0.424667844042958,580020,218160
1176.96364132437,0.441325879389661,586541,212311
1180.53171244955,0.46359385703127,592702,203818
1185.28243136747,0.502654998486001,603044,189537
1188.84043861918,0.52570450786195,610496,181961
1192.39413278225,0.533188061497857,618069,181071
1195.94351385669,0.529427060536214,626553,185153
1199.4885818425,0.519886990329623,634739,191738
1203.02933673968,0.514139544194674,642902,196791
1206.56577854822,0.512703681979696,651802,200176
1210.09790726814,0.513916514506071,661001,202435
1214.80070297904,0.505507726786053,673300,210233
1218.32276782548,0.487698427647546,682816,222129
1221.84051958329,0.464923815880811,693202,237649
1225.35395825247,0.439443952808683,703688,255821
1228.86308383301,0.415328200666075,714299,274506
1232.36789632493,0.394259241634026,724449,292246
1235.86839572821,0.376693136030265,735243,308843
1240.52901901693,0.359826134940094,749881,327466
1244.01945454674,0.348658834663349,760472,340741
1247.50557698792,0.340236860261396,769166,351385
1250.98738634046,0.333132548938968,778059,361310
1254.46488260438,0.327223009353792,786671,370314
1257.93806577966,0.322021909436628,795425,378946
1261.40693586631,0.31789175955737,803958,386671
1264.87149286432,0.314056669979991,812971,394474
1269.48419294603,0.30935188498377,824682,404515
1272.93868607057,0.306159235198651,834168,412187
1276.38886610648,0.303617082074517,843200,419096
1279.83473305376,0.301142126377091,852194,425987
1283.27628691241,0.299109311001071,860946,432381
1286.71352768243,0.296983288718618,868884,438509
1290.14645536381,0.295257111299492,877344,444542
1293.57506995657,0.29354294641116,885846,450625
1298.13984683125,0.291909973311285,896395,457709
1301.55839755053,0.290830407589998,903365,462416
1304.97263518118,0.289727133667193,910138,467068
1308.3825597232,0.2891236214503,917549,471526
1311.78817117658,0.288832271454356,924224,475275
1315.18946954133,0.288591439334149,929653,478332
1318.58645481745,0.288906349099675,934649,480554
1321.97912700494,0.288843067245589,939707,483225
1326.49598067261,0.289788022568378,945677,485238
1329.87858898662,0.291415998565351,950103,485685
1333.25688421201,0.293195552061855,953845,485604
1336.63086634876,0.295290038589107,957047,484890
1340.00053539688,0.297996966984565,959726,483226
1343.36589135636,0.302823374636529,961442,478740
1346.72693422722,0.308703611007862,962546,472844
1350.08366400944,0.318879450821369,963028,462125
1354.55259447009,0.340814831527,961157,438510
1357.89926037884,0.360324875962639,960021,418751
1361.24161319896,0.379820911724038,959327,400079
1364.57965293045,0.394627477736979,958722,386425
1367.9133795733,0.408659370875588,958383,374007
1371.24279312752,0.424241047310117,958255,360778
1374.56789359312,0.439894560919694,957143,347602
1378.99465163159,0.463036682383414,953901,328448
1382.30968822371,0.479057159746176,950611,315461
1385.62041172719,0.49451213290005,946429,303093
1388.92682214204,0.510183394694941,942188,291041
1392.22891946827,0.52606413362094,937857,279301
1395.52670370586,0.535598262843658,933593,271994
1398.82017485482,0.535824512175482,929852,270763
1402.10933291514,0.528985487248274,927291,274303
1406.4881677466,0.525921993816935,924838,275514
1409.76726193345,0.532723693508271,922749,270620
1413.04204303167,0.542263786749252,921309,264327
1416.31251104126,0.548364975878024,919833,260222
1419.57866596222,0.549187318459393,918729,259418
1422.84050779454,0.551110804165792,917208,257844
1426.09803653824,0.553455890834589,915833,256071
1429.3512521933,0.557985741886834,915750,253391
1433.68216381773,0.56230340017191,915121,250712
1436.92531559932,0.56190157031066,913363,250462
1440.16415429228,0.560358462781643,912936,251236
1443.3986798966,0.559364529536926,911585,251439
1446.6288924123,0.55523374610879,910497,253539
1449.85479183936,0.551861391056899,908051,254829
1453.07637817779,0.548292766842848,905727,256274
1456.29365142759,0.543632608374549,903172,258308
1460.576639845,0.540072260788892,898347,259043
1463.78384922132,0.536488454279066,894476,260064
1466.98674550902,0.532880967184757,889693,260831
1470.18532870808,0.528682153519791,885619,262159
1473.37959881851,0.524846844060779,880836,263056
1476.5695558403,0.521995219324366,875537,263196
1479.75519977347,0.520246228640302,869901,262557
1482.936530618,0.517802538330732,864338,262350
1487.1715958284,0.515692709001877,856064,261104
1490.34286279946,0.513592148745328,849780,260444
1493.50981668188,0.508667652874793,843557,261485
1496.67245747568,0.504257488306882,836401,261913
1499.83078518084,0.498731821202281,829213,262987
1502.98479979738,0.492397656354424,821641,264414
1506.13450132528,0.487513306559801,814056,264936
1510.3273941135,0.481514251318644,803437,265117
1513.46703176792,0.477418052375269,794826,264761
1516.60235633372,0.473019183471661,785238,264230
1519.73336781088,0.469307075307234,777058,263722
1522.86006619941,0.465333131808966,768275,263138
1525.98245149931,0.461833498552284,758619,261933
1529.10052371058,0.458822356443483,748669,260296
1532.21428283322,0.455342799736657,738857,258951
1536.35925241442,0.453084988093856,725937,255749
1539.46294766358,0.451882670368441,715458,252756
1542.56232982411,0.450785207933845,704428,249489
1545.65739889601,0.44847101143092,693680,246995
1548.74815487928,0.448852820949437,682501,242801
1551.83459777391,0.44738199424517,671114,239560
1554.91672757992,0.446722619354199,659970,235940
1557.99454429729,0.447328973439776,647979,231330
1562.09159067147,0.447074136146507,631488,225575
1565.15934351537,0.446594614932774,619340,221480
1568.22278327063,0.446765644348236,606917,216952
1571.28190993727,0.446838134655384,594685,212544
1574.33672351527,0.447627092264955,582323,207748
1577.38722400464,0.44775386643371,569357,203063
1580.43341140538,0.447730451822911,556948,198648
1583.47528571749,0.449134656149873,544505,193583
1587.52440888465,0.447931602686728,527863,188187
1590.55621932328,0.447845293737201,515169,183698
1593.58371667328,0.448084272894805,502141,178954
1596.60690093465,0.447021595313139,490126,175100
1599.62577210739,0.4481502290033,477824,170262
1602.6403301915,0.445261954906192,465418,166948
1605.65057518697,0.446328541593268,452768,162012
1608.65650709382,0.445936641908047,439298,157334
1612.65770705396,0.446682871297921,420391,150304
1615.65357508733,0.44793827138706,406918,145067
1618.64513003206,0.451020435285088,394191,139536
1621.63237188817,0.454348920778697,381894,134151
1624.61530065564,0.458410106846208,369376,128546
1627.59391633449,0.462065347513436,357586,123400
1630.5682189247,0.464735987233831,345747,118583
1633.53820842628,0.465858029165502,334364,114383
1637.4914851794,0.467963327121148,319040,108613
1640.4514108075,0.467587008294004,307846,104893
1643.40702334698,0.466178232331303,296739,101437
1646.35832279782,0.466430069494217,284919,97340
1649.30530916003,0.464337012117356,273144,93768
1652.2479824336,0.462820470590096,260926,89887
1655.18634261855,0.463082021990106,248001,85383
1659.09744694949,0.459272859175166,228681,79425
1662.02574326097,0.455328390204831,212222,74381
1664.94972648381,0.449118740225114,193672,68857
1667.86939661802,0.441064843296187,173346,62784
1670.78475366359,0.432591595935474,152416,56291
1673.69579762054,0.427432755031105,131239,49049
1676.60252848885,0.435759147094657,111046,40714
1679.50494626853,0.460438539278715,93078,32241
1683.36812739246,0.537256750587429,72973,21179
1686.26048129867,0.656719341892235,60866,13417
1689.14852211624,0.806314765650848,50915,7953
1692.03224984519,0.919650016336693,42552,5120
1694.9116644855,1.02467582488549,35956,3397
1697.78676603718,1.08865671576933,30257,2467
1700.65755450023,1.17765438786396,25607,1701
