***Scan Config Information***,,,,,,,***Reference Scan Information***,,,,,,,,
Scan Config Name:,Column 1,,,,,,Scan Config Name:,Built-in Factory Reference,,,,,,,
Scan Config Type:,Slew,Num Section:,1,,,,Scan Config Type:,Slew,Num Section:,1,,,,,
Section Config Type:,Column,,,,,,Section Config Type:,Column,,,,,,,
Start Wavelength (nm):,900,,,,,,Start Wavelength (nm):,900,,,,,,,
End Wavelength (nm):,1700,,,,,,End Wavelength (nm):,1700,,,,,,,
Pattern Width (nm):,7.03,,,,,,Pattern Width (nm):,7.03,,,,,,,
Exposure (ms):,0.635,,,,,,Exposure (ms):,0.635,,,,,,,
Digital Resolution:,228,,,,,,Digital Resolution:,228,,,,,,,
Num Repeats:,6,,,,,,Num Repeats:,30,,,,,,,
PGA Gain:,64,,,,,,PGA Gain:,64,,,,,,,
System Temp (C):,33.79,,,,,,System Temp (C):,27.24,,,,,,,
Humidity (%):,9.66,,,,,,Humidity (%):,42.33,,,,,,,
Lamp Intensity:,3087,,,,,,Lamp Intensity:,3003,,,,,,,
Data Date-Time:,2022/11/18T00:34:43,,,,,,Data Date-Time:,2021/11/04T14:10:50,,,,,,,
Total Measurement Time in sec:,3.2423903,,,,,,,,,,,,,,
,,,,,,,,,,,,,,,
***General Information***,,,,,,,***Calibration Coefficients***,,,,,,,,
Model Name:,NIR-S-G1,,,,,,Shift Vector Coefficients:,-5.53788089867561,0.0467532770725977,-9.86615555338903E-05,,,,,
Serial Number:,A43R020,(95UB122GC0AA43R020),,,,,Pixel to Wavelength Coefficients:,1754.84743575991,-0.928654795541597,-0.000239616035096235,,,,,
GUI Version:,3.7.6,,,,,,Versions (Cal/Ref/Cfg):,1,3,1,,,,,
TIVA Version:,2.4.7,,,,,,***Lamp Usage ***,,,,,,,,
DLPC Version:,2.2.0,,,,,,Total Time(hh:mm:ss):,11min 33sec ,,,,,,,
UUID:,DE:67:0C:88:67:3F:1D:21,,,,,,***Device/Error/Activation Status***,,,,,,,,
Main Board Version:,D,,,,,,Device Status:,0x00000101,Activation Status:,Activated,,,,,
Detector Board Version:,B,,,,,,Error status:,0x00000000,Error Code:,0x00000000000000000000000000000000,,,,,
,,,,,,,,,Error Details:,Not found,,,,,
***Scan Data***,,,,,,,,,,,,,,,
Wavelength (nm),Absorbance (AU),Reference Signal (unitless),Sample Signal (unitless)
900.957557108074,0.448097408780115,65443,23322
904.844796792001,0.447273265132843,82171,29339
910.021073788255,0.457319688271181,99678,34776
913.898249598708,0.455051478546372,110587,38784
917.771112320529,0.454963510864601,123185,43211
921.639661953718,0.452846436182243,139111,49036
925.503898498276,0.450777106920011,159569,56516
929.363821954203,0.448588933263856,183258,65234
933.219432321497,0.443968444909632,207371,74607
937.070729600159,0.438027372300527,229890,83848
942.199083389394,0.428166085630856,255937,95492
946.040316794582,0.42293203973084,272586,102937
949.877237111139,0.417105674012115,287311,109963
953.709844339064,0.412895034629287,300732,116221
957.538138478358,0.40842407609151,313797,122525
961.362119529019,0.405334267844213,326713,128479
965.181787491049,0.403099270233085,339646,134254
968.997142364448,0.400701730124115,353609,140547
974.077572946662,0.397904506388936,373087,149247
977.882863946587,0.396278887211477,388028,155806
981.683841857879,0.395799642466546,402790,161912
985.48050668054,0.393948806858433,417062,168365
989.272858414569,0.393881901736378,431192,174096
993.060897059966,0.392149721027463,444758,180291
996.844622616732,0.391121691154548,456216,185374
1000.62403508487,0.391035723580747,468463,190388
1005.65654246006,0.388010569552337,482450,197443
1009.42589105472,0.387049740476767,491458,201575
1013.19092656075,0.38581895352231,499843,205596
1016.95164897815,0.385150932251452,506896,208818
1020.70805830691,0.382215238044154,512583,212593
1024.46015454704,0.380091907183405,516710,215355
1028.20793769854,0.376793744207818,519030,217971
1031.95140776141,0.373441446721567,518900,219605
1036.93599192959,0.369465509537374,518793,221579
1040.66939811898,0.366665105577523,518378,222834
1044.39849121975,0.364791596976449,517629,223474
1048.12327123188,0.362281834543851,517016,224503
1051.84373815538,0.358589150869691,515671,225831
1055.55989199025,0.355901617181066,513781,226400
1059.27173273648,0.354036457069186,511708,226457
1064.21414448248,0.350440420419682,508349,226841
1067.91592135525,0.34800866389103,506188,227145
1071.61338513938,0.345406618482081,504263,227641
1075.30653583488,0.342433923248153,502196,228265
1078.99537344174,0.340272630516993,500791,228762
1082.67989795998,0.337826901682357,499607,229510
1086.36010938958,0.33620974233774,499034,230102
1090.03600773056,0.333087452460776,498043,231302
1094.93049626954,0.33080430267573,499075,233003
1098.59633073703,0.328655978410475,500696,234919
1102.2578521159,0.326344031268563,501788,236688
1105.91506040614,0.325378389655887,503305,237932
1109.56795560774,0.32414382633799,505112,239466
1113.21653772071,0.323730987638013,507576,240863
1116.86080674505,0.323021537048531,510261,242533
1120.50076268076,0.321959074348504,513048,244455
1125.34732801272,0.322033562659434,517118,246352
1128.97722007495,0.322744689094937,520581,247596
1132.60279904855,0.324638366357885,524427,248340
1136.22406493352,0.329517307738385,528466,247457
1139.84101772986,0.335005945184956,532886,246393
1143.45365743757,0.344651809242398,536838,242768
1147.06198405664,0.355616883498351,541119,238603
1150.66599758709,0.364935728888467,545478,235419
1155.46463971203,0.371838337404233,551844,234411
1159.058589369,0.376573730031514,557161,234103
1162.64822593734,0.384066267135318,562302,232222
1166.23354941704,0.395062561464099,568178,228782
1169.81455980812,0.408848664681376,574011,223909
1173.39125711056,0.423616030289356,580020,218689
1176.96364132437,0.440022770292468,586541,212949
1180.53171244955,0.462935939809229,592702,204127
1185.28243136747,0.501417147116733,603044,190078
1188.84043861918,0.524203455633606,610496,182591
1192.39413278225,0.533327195401403,618069,181013
1195.94351385669,0.528155264887849,626553,185696
1199.4885818425,0.51947268545881,634739,191921
1203.02933673968,0.512555687807888,642902,197510
1206.56577854822,0.511276288111643,651802,200835
1210.09790726814,0.512368187769676,661001,203158
1214.80070297904,0.504816242297312,673300,210568
1218.32276782548,0.487334922781466,682816,222315
1221.84051958329,0.464576736854827,693202,237839
1225.35395825247,0.43821997601296,703688,256543
1228.86308383301,0.414012311351105,714299,275339
1232.36789632493,0.393263239750508,724449,292917
1235.86839572821,0.376645327921738,735243,308877
1240.52901901693,0.357986579866814,749881,328856
1244.01945454674,0.347428081757087,760472,341708
1247.50557698792,0.338413956435882,769166,352863
1250.98738634046,0.332151623875531,778059,362127
1254.46488260438,0.325920839251919,786671,371426
1257.93806577966,0.32120096152737,795425,379663
1261.40693586631,0.316016761533324,803958,388344
1264.87149286432,0.31214304463626,812971,396216
1269.48419294603,0.307686679522728,824682,406069
1272.93868607057,0.304928229015984,834168,413357
1276.38886610648,0.302296816893016,843200,420372
1279.83473305376,0.299890962732756,852194,427216
1283.27628691241,0.297718402597824,860946,433768
1286.71352768243,0.29568386350139,868884,439823
1290.14645536381,0.294083430049041,877344,445745
1293.57506995657,0.292337991651734,885846,451877
1298.13984683125,0.290626188881582,896395,459064
1301.55839755053,0.289483826739426,903365,463852
1304.97263518118,0.288853970522155,910138,468008
1308.3825597232,0.287554244524909,917549,473233
1311.78817117658,0.287666945431576,924224,476552
1315.18946954133,0.287336671345341,929653,479716
1318.58645481745,0.287205236859933,934649,482440
1321.97912700494,0.287637731262402,939707,484568
1326.49598067261,0.28807922821608,945677,487151
1329.87858898662,0.289970713130228,950103,487304
1333.25688421201,0.291980951375075,953845,486964
1336.63086634876,0.294054003037614,957047,486272
1340.00053539688,0.297124269225452,959726,484198
1343.36589135636,0.301163722877153,961442,480573
1346.72693422722,0.307502074923969,962546,474154
1350.08366400944,0.317642587589184,963028,463443
1354.55259447009,0.338642413603709,961157,440709
1357.89926037884,0.359216574355073,960021,419821
1361.24161319896,0.37796322061306,959327,401794
1364.57965293045,0.392915817671948,958722,387951
1367.9133795733,0.407238075936631,958383,375233
1371.24279312752,0.422656167331257,958255,362097
1374.56789359312,0.438592140578328,957143,348646
1378.99465163159,0.461103875105545,953901,329913
1382.30968822371,0.478205818755222,950611,316080
1385.62041172719,0.492623417494941,946429,304414
1388.92682214204,0.508736869827441,942188,292012
1392.22891946827,0.52529512278843,937857,279796
1395.52670370586,0.535057316506623,933593,272333
1398.82017485482,0.534535235646244,929852,271568
1402.10933291514,0.527198495461123,927291,275434
1406.4881677466,0.524947354610613,924838,276133
1409.76726193345,0.530941199682611,922749,271733
1413.04204303167,0.540781030967991,921309,265231
1416.31251104126,0.544067100061454,919833,262810
1419.57866596222,0.547051391743217,918729,260697
1422.84050779454,0.548795976995172,917208,259222
1426.09803653824,0.551655093529734,915833,257135
1429.3512521933,0.555395165544712,915750,254907
1433.68216381773,0.560086597819505,915121,251995
1436.92531559932,0.561101212472883,913363,250924
1440.16415429228,0.558820976762535,912936,252127
1443.3986798966,0.557632117317905,911585,252444
1446.6288924123,0.554173026103461,910497,254159
1449.85479183936,0.549960197554569,908051,255947
1453.07637817779,0.546695957339374,905727,257218
1456.29365142759,0.542732362699571,903172,258844
1460.576639845,0.538340505054254,898347,260078
1463.78384922132,0.534773463968634,894476,261093
1466.98674550902,0.531514455067039,889693,261653
1470.18532870808,0.52860098735306,885619,262208
1473.37959881851,0.524911236207212,880836,263017
1476.5695558403,0.52074790158768,875537,263953
1479.75519977347,0.519258203972074,869901,263155
1482.936530618,0.517703225620053,864338,262410
1487.1715958284,0.514896717844389,856064,261583
1490.34286279946,0.512840749520646,849780,260895
1493.50981668188,0.508943446045536,843557,261319
1496.67245747568,0.503612941376825,836401,262302
1499.83078518084,0.498296072537832,829213,263251
1502.98479979738,0.493425420974722,821641,263789
1506.13450132528,0.487424796457999,814056,264990
1510.3273941135,0.481452007072897,803437,265155
1513.46703176792,0.477375405980462,794826,264787
1516.60235633372,0.472749712931855,785238,264394
1519.73336781088,0.469279080796948,777058,263739
1522.86006619941,0.464483983932734,768275,263653
1525.98245149931,0.461964503194746,758619,261854
1529.10052371058,0.457855723917206,748669,260876
1532.21428283322,0.45556255935372,738857,258820
1536.35925241442,0.452140159425722,725937,256306
1539.46294766358,0.45105526923881,715458,253238
1542.56232982411,0.449731600992409,704428,250095
1545.65739889601,0.449199563701181,693680,246581
1548.74815487928,0.448311187317048,682501,243104
1551.83459777391,0.448020598684793,671114,239208
1554.91672757992,0.44694540104342,659970,235819
1557.99454429729,0.446709879276629,647979,231660
1562.09159067147,0.446591160139842,631488,225826
1565.15934351537,0.44712830057116,619340,221208
1568.22278327063,0.447629278223398,606917,216521
1571.28190993727,0.44682383168135,594685,212551
1574.33672351527,0.447167428480361,582323,207968
1577.38722400464,0.448308147940121,569357,202804
1580.43341140538,0.448224825930795,556948,198422
1583.47528571749,0.447379340581764,544505,194367
1587.52440888465,0.448060857684715,527863,188131
1590.55621932328,0.447318402138326,515169,183921
1593.58371667328,0.448662247575089,502141,178716
1596.60690093465,0.447783705101895,490126,174793
1599.62577210739,0.447520652215276,477824,170509
1602.6403301915,0.446381989516763,465418,166518
1605.65057518697,0.4457766822631,452768,162218
1608.65650709382,0.445757257212289,439298,157399
1612.65770705396,0.446062085457026,420391,150519
1615.65357508733,0.446065234341286,406918,145694
1618.64513003206,0.450336242355968,394191,139756
1621.63237188817,0.451940543732408,381894,134897
1624.61530065564,0.457441554105174,369376,128833
1627.59391633449,0.461678385493511,357586,123510
1630.5682189247,0.463635011442986,345747,118884
1633.53820842628,0.46629108529481,334364,114269
1637.4914851794,0.468159300267239,319040,108564
1640.4514108075,0.46621458053452,307846,105225
1643.40702334698,0.466640872108002,296739,101329
1646.35832279782,0.464724620482142,284919,97723
1649.30530916003,0.464124011439594,273144,93814
1652.2479824336,0.462221769945458,260926,90011
1655.18634261855,0.461259822454889,248001,85742
1659.09744694949,0.458502557233521,228681,79566
1662.02574326097,0.454086506832728,212222,74594
1664.94972648381,0.448702664771521,193672,68923
1667.86939661802,0.441930365138074,173346,62659
1670.78475366359,0.433441094623881,152416,56181
1673.69579762054,0.424995818614709,131239,49325
1676.60252848885,0.43350361948285,111046,40926
1679.50494626853,0.455989283590652,93078,32573
1683.36812739246,0.539435833786419,72973,21073
1686.26048129867,0.657172744077089,60866,13403
1689.14852211624,0.789813125941211,50915,8261
1692.03224984519,0.965030678689862,42552,4612
1694.9116644855,1.07778239550463,35956,3006
1697.78676603718,1.17871148830286,30257,2005
1700.65755450023,1.18382563887044,25607,1677
