***Scan Config Information***,,,,,,,***Reference Scan Information***,,,,,,,,
Scan Config Name:,Column 1,,,,,,Scan Config Name:,Built-in Factory Reference,,,,,,,
Scan Config Type:,Slew,Num Section:,1,,,,Scan Config Type:,Slew,Num Section:,1,,,,,
Section Config Type:,Column,,,,,,Section Config Type:,Column,,,,,,,
Start Wavelength (nm):,900,,,,,,Start Wavelength (nm):,900,,,,,,,
End Wavelength (nm):,1700,,,,,,End Wavelength (nm):,1700,,,,,,,
Pattern Width (nm):,7.03,,,,,,Pattern Width (nm):,7.03,,,,,,,
Exposure (ms):,0.635,,,,,,Exposure (ms):,0.635,,,,,,,
Digital Resolution:,228,,,,,,Digital Resolution:,228,,,,,,,
Num Repeats:,6,,,,,,Num Repeats:,30,,,,,,,
PGA Gain:,64,,,,,,PGA Gain:,64,,,,,,,
System Temp (C):,34.23,,,,,,System Temp (C):,27.24,,,,,,,
Humidity (%):,9.46,,,,,,Humidity (%):,42.33,,,,,,,
Lamp Intensity:,3096,,,,,,Lamp Intensity:,3003,,,,,,,
Data Date-Time:,2022/11/18T00:36:54,,,,,,Data Date-Time:,2021/11/04T14:10:50,,,,,,,
Total Measurement Time in sec:,3.2514839,,,,,,,,,,,,,,
,,,,,,,,,,,,,,,
***General Information***,,,,,,,***Calibration Coefficients***,,,,,,,,
Model Name:,NIR-S-G1,,,,,,Shift Vector Coefficients:,-5.53788089867561,0.0467532770725977,-9.86615555338903E-05,,,,,
Serial Number:,A43R020,(95UB122GC0AA43R020),,,,,Pixel to Wavelength Coefficients:,1754.84743575991,-0.928654795541597,-0.000239616035096235,,,,,
GUI Version:,3.7.6,,,,,,Versions (Cal/Ref/Cfg):,1,3,1,,,,,
TIVA Version:,2.4.7,,,,,,***Lamp Usage ***,,,,,,,,
DLPC Version:,2.2.0,,,,,,Total Time(hh:mm:ss):,11min 58sec ,,,,,,,
UUID:,DE:67:0C:88:67:3F:1D:21,,,,,,***Device/Error/Activation Status***,,,,,,,,
Main Board Version:,D,,,,,,Device Status:,0x00000001,Activation Status:,Activated,,,,,
Detector Board Version:,B,,,,,,Error status:,0x00000000,Error Code:,0x00000000000000000000000000000000,,,,,
,,,,,,,,,Error Details:,Not found,,,,,
***Scan Data***,,,,,,,,,,,,,,,
Wavelength (nm),Absorbance (AU),Reference Signal (unitless),Sample Signal (unitless)
900.957557108074,0.386773360582451,65443,26859
904.844796792001,0.391687850503597,82171,33345
910.021073788255,0.399611943979871,99678,39718
913.898249598708,0.405834255717955,110587,43438
917.771112320529,0.40333217606142,123185,48666
921.639661953718,0.405938221855948,139111,54629
925.503898498276,0.403022415981243,159569,63085
929.363821954203,0.402114357978668,183258,72602
933.219432321497,0.397131319961163,207371,83103
937.070729600159,0.393065151625124,229890,92994
942.199083389394,0.385857331732195,255937,105263
946.040316794582,0.380901981600964,272586,113397
949.877237111139,0.377981946234581,287311,120329
953.709844339064,0.372611555705977,300732,127517
957.538138478358,0.370101799604475,313797,133828
961.362119529019,0.368594011637083,326713,139821
965.181787491049,0.365523993675402,339646,146387
968.997142364448,0.365008621815136,353609,152586
974.077572946662,0.365856402141501,373087,160677
977.882863946587,0.363150697247237,388028,168156
981.683841857879,0.364287392341074,402790,174097
985.48050668054,0.364101331661951,417062,180343
989.272858414569,0.364835651461483,431192,186138
993.060897059966,0.365361218050894,444758,191762
996.844622616732,0.365575953910912,456216,196605
1000.62403508487,0.36674091697097,468463,201342
1005.65654246006,0.367929078084888,482450,206787
1009.42589105472,0.367856915124829,491458,210683
1013.19092656075,0.369500833290132,499843,213468
1016.95164897815,0.368135031417279,506896,217162
1020.70805830691,0.3692229236715,512583,219049
1024.46015454704,0.368628661373339,516710,221115
1028.20793769854,0.367624380786443,519030,222622
1031.95140776141,0.365883876264928,518900,223460
1036.93599192959,0.364166770220882,518793,224299
1040.66939811898,0.362251773790154,518378,225110
1044.39849121975,0.361430928966339,517629,225210
1048.12327123188,0.361037818809023,517016,225147
1051.84373815538,0.358527616187167,515671,225863
1055.55989199025,0.357502476151078,513781,225567
1059.27173273648,0.356868642567976,511708,224985
1064.21414448248,0.355733682893708,508349,224093
1067.91592135525,0.354471169009708,506188,223790
1071.61338513938,0.353208612034098,504263,223588
1075.30653583488,0.352730059506023,502196,222917
1078.99537344174,0.351910947304157,500791,222713
1082.67989795998,0.351603100235841,499607,222344
1086.36010938958,0.350575711682977,499034,222615
1090.03600773056,0.349550523711842,498043,222698
1094.93049626954,0.348418299577243,499075,223742
1098.59633073703,0.348415815322466,500696,224470
1102.2578521159,0.347755224213514,501788,225302
1105.91506040614,0.348053456540409,503305,225828
1109.56795560774,0.347880613665184,505112,226729
1113.21653772071,0.348555950188652,507576,227481
1116.86080674505,0.349490057872346,510261,228193
1120.50076268076,0.349653573756027,513048,229353
1125.34732801272,0.351359838281897,517118,230266
1128.97722007495,0.353838109639397,520581,230489
1132.60279904855,0.35778352406623,524427,230092
1136.22406493352,0.36222489974635,528466,229505
1139.84101772986,0.370750052653572,532886,226926
1143.45365743757,0.381982645847912,536838,222772
1147.06198405664,0.393988450652989,541119,218426
1150.66599758709,0.405183950694265,545478,214582
1155.46463971203,0.413104501227622,551844,213163
1159.058589369,0.418405192513116,557161,212606
1162.64822593734,0.428058585124256,562302,209851
1166.23354941704,0.441526790475669,568178,205569
1169.81455980812,0.456400974142322,574011,200687
1173.39125711056,0.471716794133756,580020,195761
1176.96364132437,0.489752828351321,586541,189909
1180.53171244955,0.512686266165137,592702,182033
1185.28243136747,0.553942444772254,603044,168425
1188.84043861918,0.57655133623607,610496,161857
1192.39413278225,0.585610633485514,618069,160482
1195.94351385669,0.582090133144761,626553,164009
1199.4885818425,0.572846807154418,634739,169726
1203.02933673968,0.56779275297928,642902,173921
1206.56577854822,0.567410350259682,651802,176484
1210.09790726814,0.568522536653615,661001,178517
1214.80070297904,0.561229426833963,673300,184918
1218.32276782548,0.544177774149697,682816,195041
1221.84051958329,0.521603801437134,693202,208572
1225.35395825247,0.496951854384753,703688,224093
1228.86308383301,0.473717661290086,714299,239973
1232.36789632493,0.45265260971007,724449,255479
1235.86839572821,0.437502783534552,735243,268490
1240.52901901693,0.419389279638541,749881,285498
1244.01945454674,0.410041014770295,760472,295830
1247.50557698792,0.400254657151693,769166,306031
1250.98738634046,0.394914924290528,778059,313399
1254.46488260438,0.389220466291454,786671,321050
1257.93806577966,0.384073117201931,795425,328493
1261.40693586631,0.380342853272023,803958,334881
1264.87149286432,0.37684970173657,812971,341370
1269.48419294603,0.372759815236941,824682,349564
1272.93868607057,0.370884508390599,834168,355115
1276.38886610648,0.368311528413785,843200,361093
1279.83473305376,0.366808272866984,852194,366210
1283.27628691241,0.364795035684902,860946,371690
1286.71352768243,0.363536082307097,868884,376206
1290.14645536381,0.362685151609858,877344,380614
1293.57506995657,0.361472436866055,885846,385377
1298.13984683125,0.360484864533609,896395,390854
1301.55839755053,0.359673162745281,903365,394630
1304.97263518118,0.359270007785732,910138,397958
1308.3825597232,0.359489225749492,917549,400996
1311.78817117658,0.35904235028318,924224,404329
1315.18946954133,0.358684852432615,929653,407039
1318.58645481745,0.359426717759078,934649,408528
1321.97912700494,0.360417328614709,939707,409803
1326.49598067261,0.360983721305922,945677,411869
1329.87858898662,0.362664809165964,950103,412198
1333.25688421201,0.364012795984633,953845,412539
1336.63086634876,0.366203686494847,957047,411841
1340.00053539688,0.368696585378901,959726,410630
1343.36589135636,0.372740061379757,961442,407552
1346.72693422722,0.378749491367118,962546,402413
1350.08366400944,0.388531968388016,963028,393647
1354.55259447009,0.4105072153809,961157,373497
1357.89926037884,0.430301608727537,960021,356434
1361.24161319896,0.449318009658593,959327,340917
1364.57965293045,0.464319945498744,958722,329134
1367.9133795733,0.477620463377986,958383,319094
1371.24279312752,0.492954348962219,958255,307983
1374.56789359312,0.508668063775704,957143,296694
1378.99465163159,0.531361470025899,953901,280635
1382.30968822371,0.547334498931276,950611,269568
1385.62041172719,0.562411156106708,946429,259225
1388.92682214204,0.576943449442848,942188,249571
1392.22891946827,0.591476843287384,937857,240248
1395.52670370586,0.600487257178864,933593,234245
1398.82017485482,0.597676896333401,929852,234821
1402.10933291514,0.589296312511611,927291,238737
1406.4881677466,0.584373113796906,924838,240820
1409.76726193345,0.589529699616129,922749,237440
1413.04204303167,0.597414875661849,921309,232804
1416.31251104126,0.601171851186782,919833,230429
1419.57866596222,0.601444483597876,918729,230008
1422.84050779454,0.600738109793474,917208,230001
1426.09803653824,0.60384906090746,915833,228017
1429.3512521933,0.607864541448574,915750,225898
1433.68216381773,0.610326019301677,915121,224467
1436.92531559932,0.610670795164403,913363,223858
1440.16415429228,0.608419981810679,912936,224916
1443.3986798966,0.605988613169469,911585,225844
1446.6288924123,0.603493791044451,910497,226874
1449.85479183936,0.599771763975217,908051,228212
1453.07637817779,0.595772040047315,905727,229734
1456.29365142759,0.592040057501363,903172,231063
1460.576639845,0.587024900486906,898347,232498
1463.78384922132,0.583799177019769,894476,233222
1466.98674550902,0.579180674642527,889693,234455
1470.18532870808,0.57555117617238,885619,235340
1473.37959881851,0.572157910213852,880836,235905
1476.5695558403,0.568382763919637,875537,236533
1479.75519977347,0.565594615084629,869901,236524
1482.936530618,0.564056933387152,864338,235845
1487.1715958284,0.561205578445185,856064,235126
1490.34286279946,0.559196995799936,849780,234482
1493.50981668188,0.555445936239529,843557,234784
1496.67245747568,0.549657147326068,836401,235916
1499.83078518084,0.544368776915756,829213,236754
1502.98479979738,0.53996857472768,821641,236981
1506.13450132528,0.534013462418112,814056,238035
1510.3273941135,0.528800249897062,803437,237767
1513.46703176792,0.524277599105758,794826,237681
1516.60235633372,0.521032459473754,785238,236575
1519.73336781088,0.516875779821257,777058,236362
1522.86006619941,0.512843994243127,768275,235870
1525.98245149931,0.509569843632195,758619,234668
1529.10052371058,0.506122017909103,748669,233436
1532.21428283322,0.504497431520696,738857,231240
1536.35925241442,0.50197851791364,725937,228518
1539.46294766358,0.50044495959933,715458,226016
1542.56232982411,0.499611602376849,704428,222959
1545.65739889601,0.498381305828082,693680,220180
1548.74815487928,0.49834860786989,682501,216648
1551.83459777391,0.497312992718591,671114,213542
1554.91672757992,0.497416589785703,659970,209946
1557.99454429729,0.497139601212211,647979,206263
1562.09159067147,0.496547217457139,631488,201288
1565.15934351537,0.498630674142317,619340,196471
1568.22278327063,0.499082270828234,606917,192330
1571.28190993727,0.498271192763493,594685,188806
1574.33672351527,0.499763518574392,582323,184247
1577.38722400464,0.500206266712825,569357,179961
1580.43341140538,0.501483089870008,556948,175522
1583.47528571749,0.500321953520563,544505,172060
1587.52440888465,0.501057427509411,527863,166519
1590.55621932328,0.502147953038037,515169,162107
1593.58371667328,0.503302539341808,502141,157588
1596.60690093465,0.504258780528221,490126,153479
1599.62577210739,0.504742981654023,477824,149460
1602.6403301915,0.505359422697406,465418,145373
1605.65057518697,0.505936465620256,452768,141234
1608.65650709382,0.50729580962856,439298,136604
1612.65770705396,0.507623781616227,420391,130626
1615.65357508733,0.510994694895339,406918,125462
1618.64513003206,0.514362997757008,394191,120599
1621.63237188817,0.519308212360859,381894,115514
1624.61530065564,0.52353688085298,369376,110645
1627.59391633449,0.526933047815335,357586,106279
1630.5682189247,0.53147163169526,345747,101692
1633.53820842628,0.532484103871843,334364,98115
1637.4914851794,0.53667639763659,319040,92719
1640.4514108075,0.537345904448226,307846,89328
1643.40702334698,0.536655809306185,296739,86242
1646.35832279782,0.535021101793565,284919,83119
1649.30530916003,0.535287680656908,273144,79635
1652.2479824336,0.53238498153509,260926,76583
1655.18634261855,0.534121415749147,248001,72499
1659.09744694949,0.527385893505754,228681,67896
1662.02574326097,0.526375786984642,212222,63156
1664.94972648381,0.518376949461064,193672,58707
1667.86939661802,0.512953214546163,173346,53206
1670.78475366359,0.498858697130906,152416,48325
1673.69579762054,0.496772357777609,131239,41811
1676.60252848885,0.501186777650215,111046,35020
1679.50494626853,0.524505528372746,93078,27819
1683.36812739246,0.60536367178874,72973,18105
1686.26048129867,0.722620793861509,60866,11528
1689.14852211624,0.883241119748446,50915,6662
1692.03224984519,0.993637339314312,42552,4318
1694.9116644855,1.11439048683901,35956,2763
1697.78676603718,1.21178015560144,30257,1858
1700.65755450023,1.2475901396154,25607,1448
