***Scan Config Information***,,,,,,,***Reference Scan Information***,,,,,,,,
Scan Config Name:,Column 1,,,,,,Scan Config Name:,Built-in Factory Reference,,,,,,,
Scan Config Type:,Slew,Num Section:,1,,,,Scan Config Type:,Slew,Num Section:,1,,,,,
Section Config Type:,Column,,,,,,Section Config Type:,Column,,,,,,,
Start Wavelength (nm):,900,,,,,,Start Wavelength (nm):,900,,,,,,,
End Wavelength (nm):,1700,,,,,,End Wavelength (nm):,1700,,,,,,,
Pattern Width (nm):,7.03,,,,,,Pattern Width (nm):,7.03,,,,,,,
Exposure (ms):,0.635,,,,,,Exposure (ms):,0.635,,,,,,,
Digital Resolution:,228,,,,,,Digital Resolution:,228,,,,,,,
Num Repeats:,6,,,,,,Num Repeats:,30,,,,,,,
PGA Gain:,64,,,,,,PGA Gain:,64,,,,,,,
System Temp (C):,32.6,,,,,,System Temp (C):,27.24,,,,,,,
Humidity (%):,30.34,,,,,,Humidity (%):,42.33,,,,,,,
Lamp Intensity:,3078,,,,,,Lamp Intensity:,3003,,,,,,,
Data Date-Time:,2022/10/06T23:34:04,,,,,,Data Date-Time:,2021/11/04T14:10:50,,,,,,,
Total Measurement Time in sec:,3.254392,,,,,,,,,,,,,,
,,,,,,,,,,,,,,,
***General Information***,,,,,,,***Calibration Coefficients***,,,,,,,,
Model Name:,NIR-S-G1,,,,,,Shift Vector Coefficients:,-5.53788089867561,0.0467532770725977,-9.86615555338903E-05,,,,,
Serial Number:,A43R020,(95UB122GC0AA43R020),,,,,Pixel to Wavelength Coefficients:,1754.84743575991,-0.928654795541597,-0.000239616035096235,,,,,
GUI Version:,3.7.6,,,,,,Versions (Cal/Ref/Cfg):,1,3,1,,,,,
TIVA Version:,2.4.7,,,,,,***Lamp Usage ***,,,,,,,,
DLPC Version:,2.2.0,,,,,,Total Time(hh:mm:ss):,8min 26sec ,,,,,,,
UUID:,DE:67:0C:88:67:3F:1D:21,,,,,,***Device/Error/Activation Status***,,,,,,,,
Main Board Version:,D,,,,,,Device Status:,0x00000001,Activation Status:,Activated,,,,,
Detector Board Version:,B,,,,,,Error status:,0x00000000,Error Code:,0x00000000000000000000000000000000,,,,,
,,,,,,,,,Error Details:,Not found,,,,,
***Scan Data***,,,,,,,,,,,,,,,
Wavelength (nm),Absorbance (AU),Reference Signal (unitless),Sample Signal (unitless)
900.957557108074,0.369046533956889,65443,27978
904.844796792001,0.384967492315889,82171,33865
910.021073788255,0.385709546166477,99678,41010
913.898249598708,0.393843708654082,110587,44654
917.771112320529,0.396488150127549,123185,49439
921.639661953718,0.398411675787366,139111,55584
925.503898498276,0.396992540237703,159569,63967
929.363821954203,0.397479316738476,183258,73381
933.219432321497,0.395347702966918,207371,83445
937.070729600159,0.391210404310264,229890,93392
942.199083389394,0.386881738293508,255937,105015
946.040316794582,0.382555795589083,272586,112966
949.877237111139,0.381773700518473,287311,119283
953.709844339064,0.37855424113262,300732,125784
957.538138478358,0.376845424949001,313797,131766
961.362119529019,0.377686837695804,326713,136924
965.181787491049,0.376222271552154,339646,142825
968.997142364448,0.376527881871793,353609,148592
974.077572946662,0.376813185147114,373087,156674
977.882863946587,0.376007215060238,388028,163251
981.683841857879,0.378022811579594,402790,168677
985.48050668054,0.378454968965138,417062,174480
989.272858414569,0.379123223480634,431192,180114
993.060897059966,0.380417131159908,444758,185228
996.844622616732,0.381497132671155,456216,189528
1000.62403508487,0.38324309667653,468463,193835
1005.65654246006,0.384437767907603,482450,199074
1009.42589105472,0.385890011750699,491458,202114
1013.19092656075,0.388548242007764,499843,204308
1016.95164897815,0.389778036576015,506896,206605
1020.70805830691,0.389019870756102,512583,209288
1024.46015454704,0.389654478946644,516710,210665
1028.20793769854,0.389036910528184,519030,211912
1031.95140776141,0.387369271279833,518900,212674
1036.93599192959,0.38711433225552,518793,212755
1040.66939811898,0.386648407803755,518378,212813
1044.39849121975,0.386108205971337,517629,212770
1048.12327123188,0.386079654231909,517016,212532
1051.84373815538,0.38569282597021,515671,212168
1055.55989199025,0.385110522962633,513781,211674
1059.27173273648,0.38475415956385,511708,210993
1064.21414448248,0.385237149189509,508349,209375
1067.91592135525,0.383656756161315,506188,209245
1071.61338513938,0.383878189805995,504263,208343
1075.30653583488,0.382745192506166,502196,208031
1078.99537344174,0.382385236841932,500791,207621
1082.67989795998,0.382238763577013,499607,207200
1086.36010938958,0.381633501095081,499034,207251
1090.03600773056,0.381888545934433,498043,206718
1094.93049626954,0.381843142053735,499075,207168
1098.59633073703,0.382168991034947,500696,207685
1102.2578521159,0.380979093954295,501788,208709
1105.91506040614,0.381554066726948,503305,209063
1109.56795560774,0.380866558324042,505112,210146
1113.21653772071,0.381714949634805,507576,210759
1116.86080674505,0.381806959826896,510261,211829
1120.50076268076,0.383873355014945,513048,211975
1125.34732801272,0.384700615249506,517118,213250
1128.97722007495,0.384982061344135,520581,214539
1132.60279904855,0.388750023460883,524427,214257
1136.22406493352,0.392751450377711,528466,213927
1139.84101772986,0.399487977062054,532886,212396
1143.45365743757,0.409794638902254,536838,208953
1147.06198405664,0.420240101434597,541119,205614
1150.66599758709,0.429294038053242,545478,202994
1155.46463971203,0.43610605843674,551844,202167
1159.058589369,0.440203853650499,557161,202198
1162.64822593734,0.448253988784705,562302,200316
1166.23354941704,0.459504833137888,568178,197233
1169.81455980812,0.472531117806261,574011,193370
1173.39125711056,0.485110151723818,580020,189816
1176.96364132437,0.500308128023058,586541,185349
1180.53171244955,0.523571978651754,592702,177527
1185.28243136747,0.557596123254744,603044,167014
1188.84043861918,0.581693148007096,610496,159952
1192.39413278225,0.590854280534558,618069,158556
1195.94351385669,0.585845285401475,626553,162597
1199.4885818425,0.577614331682159,634739,167873
1203.02933673968,0.572210000207446,642902,172161
1206.56577854822,0.572300347539961,651802,174508
1210.09790726814,0.574055742615503,661001,176257
1214.80070297904,0.568029859251978,673300,182045
1218.32276782548,0.554283340339779,682816,190555
1221.84051958329,0.534306118716319,693202,202560
1225.35395825247,0.51181995148428,703688,216551
1228.86308383301,0.490204144804087,714299,231034
1232.36789632493,0.471826658862243,724449,244445
1235.86839572821,0.457462066066665,735243,256430
1240.52901901693,0.441259308561294,749881,271477
1244.01945454674,0.432808326013118,760472,280721
1247.50557698792,0.425604886349935,769166,288679
1250.98738634046,0.419364433583131,778059,296243
1254.46488260438,0.415386600465999,786671,302278
1257.93806577966,0.411256795801844,795425,308562
1261.40693586631,0.407033118360703,803958,314920
1264.87149286432,0.403874540230174,812971,320775
1269.48419294603,0.400694789996995,824682,327787
1272.93868607057,0.398651514061823,834168,333121
1276.38886610648,0.396957365893972,843200,338044
1279.83473305376,0.395221561750752,852194,343018
1283.27628691241,0.394533811212185,860946,347090
1286.71352768243,0.393387507604003,868884,351216
1290.14645536381,0.393041884807196,877344,354918
1293.57506995657,0.392223860511267,885846,359033
1298.13984683125,0.391602112665489,896395,363829
1301.55839755053,0.390823413945176,903365,367316
1304.97263518118,0.390147929779494,910138,370646
1308.3825597232,0.389629949142588,917549,374110
1311.78817117658,0.38984388240806,924224,376646
1315.18946954133,0.389473162173524,929653,379182
1318.58645481745,0.388926385701082,934649,381700
1321.97912700494,0.389766474592015,939707,383024
1326.49598067261,0.389486431845873,945677,385706
1329.87858898662,0.390157367451034,950103,386913
1333.25688421201,0.390122557838893,953845,388468
1336.63086634876,0.390868686995383,957047,389103
1340.00053539688,0.392003442314466,959726,389174
1343.36589135636,0.393510827848508,961442,388519
1346.72693422722,0.397713794065893,962546,385219
1350.08366400944,0.405319527076111,963028,378721
1354.55259447009,0.423208462739365,961157,362732
1357.89926037884,0.440526808144626,960021,348140
1361.24161319896,0.457343395682864,959327,334675
1364.57965293045,0.46936591028658,958722,325332
1367.9133795733,0.48186576260167,958383,315990
1371.24279312752,0.494508262952435,958255,306883
1374.56789359312,0.507641704576956,957143,297396
1378.99465163159,0.528507912410961,953901,282485
1382.30968822371,0.541728845102564,950611,273070
1385.62041172719,0.553332457253444,946429,264701
1388.92682214204,0.565024802584195,942188,256515
1392.22891946827,0.575916347812262,937857,249012
1395.52670370586,0.581690481001078,933593,244606
1398.82017485482,0.575396987642761,929852,247182
1402.10933291514,0.560955265058464,927291,254836
1406.4881677466,0.548660409011383,924838,261460
1409.76726193345,0.546167752648596,922749,262371
1413.04204303167,0.545996290909217,921309,262065
1416.31251104126,0.543312561740432,919833,263267
1419.57866596222,0.535219574986874,918729,267897
1422.84050779454,0.529091682891885,917208,271254
1426.09803653824,0.524757343029374,915833,273564
1429.3512521933,0.522452129841412,915750,274995
1433.68216381773,0.518700963093493,915121,277190
1436.92531559932,0.514519614105486,913363,279334
1440.16415429228,0.509927955754335,912936,282171
1443.3986798966,0.504589787665064,911585,285238
1446.6288924123,0.499729231162082,910497,288104
1449.85479183936,0.49352681028913,908051,291463
1453.07637817779,0.488669187897523,905727,293987
1456.29365142759,0.483192449587811,903172,296878
1460.576639845,0.477986502025644,898347,298853
1463.78384922132,0.47430269692695,894476,300100
1466.98674550902,0.470069548932763,889693,301419
1470.18532870808,0.466096791547265,885619,302796
1473.37959881851,0.463165859096605,880836,303200
1476.5695558403,0.459954140898446,875537,303613
1479.75519977347,0.457967006524106,869901,303042
1482.936530618,0.456007043884114,864338,302466
1487.1715958284,0.453465303753282,856064,301329
1490.34286279946,0.451680315214912,849780,300349
1493.50981668188,0.448353789279332,843557,300442
1496.67245747568,0.444529602227186,836401,300528
1499.83078518084,0.440063537067625,829213,301025
1502.98479979738,0.435850205661009,821641,301184
1506.13450132528,0.431688303457154,814056,301277
1510.3273941135,0.426918066587082,803437,300631
1513.46703176792,0.424223393520413,794826,299260
1516.60235633372,0.420875410131536,785238,297938
1519.73336781088,0.419282052887395,777058,295918
1522.86006619941,0.415808058327507,768275,294923
1525.98245149931,0.413676671188685,758619,292649
1529.10052371058,0.410704409337746,748669,290794
1532.21428283322,0.409086481882315,738857,288054
1536.35925241442,0.407820744022421,725937,283843
1539.46294766358,0.407137712987408,715458,280186
1542.56232982411,0.406469871933403,704428,276291
1545.65739889601,0.405233623402245,693680,272851
1548.74815487928,0.405837257198835,682501,268081
1551.83459777391,0.405041053105389,671114,264092
1554.91672757992,0.405440390170941,659970,259468
1557.99454429729,0.406257268300006,647979,254275
1562.09159067147,0.405799609091494,631488,248065
1565.15934351537,0.406655406399674,619340,242814
1568.22278327063,0.407017910345809,606917,237745
1571.28190993727,0.407936882519281,594685,232461
1574.33672351527,0.408663874063811,582323,227248
1577.38722400464,0.409291953434842,569357,221867
1580.43341140538,0.411948396577378,556948,215708
1583.47528571749,0.412145687327715,544505,210793
1587.52440888465,0.413811711819036,527863,203568
1590.55621932328,0.415545625292673,515169,197881
1593.58371667328,0.415797500484642,502141,192765
1596.60690093465,0.417375962009514,490126,187470
1599.62577210739,0.417850438094503,477824,182565
1602.6403301915,0.420365827760446,465418,176798
1605.65057518697,0.423583691194975,452768,170723
1608.65650709382,0.42393236340266,439298,165511
1612.65770705396,0.426182630995349,420391,157569
1615.65357508733,0.429211816183862,406918,151459
1618.64513003206,0.434335707072098,394191,145001
1621.63237188817,0.438384725678543,381894,139174
1624.61530065564,0.444673030984836,369376,132677
1627.59391633449,0.449163206611291,357586,127121
1630.5682189247,0.451392335641217,345747,122283
1633.53820842628,0.454566212486245,334364,117396
1637.4914851794,0.457408506494921,319040,111285
1640.4514108075,0.457915967740764,307846,107255
1643.40702334698,0.45871597341435,296739,103195
1646.35832279782,0.45762785941159,284919,99333
1649.30530916003,0.457285093240823,273144,95303
1652.2479824336,0.455129488496889,260926,91493
1655.18634261855,0.452028656280083,248001,87584
1659.09744694949,0.450021842176606,228681,81135
1662.02574326097,0.441338714424454,212222,76816
1664.94972648381,0.437254463597445,193672,70764
1667.86939661802,0.43145998071738,173346,64188
1670.78475366359,0.423136185805997,152416,57530
1673.69579762054,0.416779945797511,131239,50267
1676.60252848885,0.426493114972119,111046,41592
1679.50494626853,0.447499711043031,93078,33216
1683.36812739246,0.521628759501364,72973,21955
1686.26048129867,0.631933523608488,60866,14205
1689.14852211624,0.769027063405248,50915,8666
1692.03224984519,0.909257294294477,42552,5244
1694.9116644855,0.996223816175083,35956,3627
1697.78676603718,1.13019025700011,30257,2242
1700.65755450023,1.23197800923325,25607,1501
