***Scan Config Information***,,,,,,,***Reference Scan Information***,,,,,,,,
Scan Config Name:,Column 1,,,,,,Scan Config Name:,Built-in Factory Reference,,,,,,,
Scan Config Type:,Slew,Num Section:,1,,,,Scan Config Type:,Slew,Num Section:,1,,,,,
Section Config Type:,Column,,,,,,Section Config Type:,Column,,,,,,,
Start Wavelength (nm):,900,,,,,,Start Wavelength (nm):,900,,,,,,,
End Wavelength (nm):,1700,,,,,,End Wavelength (nm):,1700,,,,,,,
Pattern Width (nm):,7.03,,,,,,Pattern Width (nm):,7.03,,,,,,,
Exposure (ms):,0.635,,,,,,Exposure (ms):,0.635,,,,,,,
Digital Resolution:,228,,,,,,Digital Resolution:,228,,,,,,,
Num Repeats:,6,,,,,,Num Repeats:,30,,,,,,,
PGA Gain:,64,,,,,,PGA Gain:,64,,,,,,,
System Temp (C):,34.27,,,,,,System Temp (C):,27.24,,,,,,,
Humidity (%):,9.65,,,,,,Humidity (%):,42.33,,,,,,,
Lamp Intensity:,3094,,,,,,Lamp Intensity:,3003,,,,,,,
Data Date-Time:,2022/11/18T00:30:04,,,,,,Data Date-Time:,2021/11/04T14:10:50,,,,,,,
Total Measurement Time in sec:,3.2421619,,,,,,,,,,,,,,
,,,,,,,,,,,,,,,
***General Information***,,,,,,,***Calibration Coefficients***,,,,,,,,
Model Name:,NIR-S-G1,,,,,,Shift Vector Coefficients:,-5.53788089867561,0.0467532770725977,-9.86615555338903E-05,,,,,
Serial Number:,A43R020,(95UB122GC0AA43R020),,,,,Pixel to Wavelength Coefficients:,1754.84743575991,-0.928654795541597,-0.000239616035096235,,,,,
GUI Version:,3.7.6,,,,,,Versions (Cal/Ref/Cfg):,1,3,1,,,,,
TIVA Version:,2.4.7,,,,,,***Lamp Usage ***,,,,,,,,
DLPC Version:,2.2.0,,,,,,Total Time(hh:mm:ss):,11min 29sec ,,,,,,,
UUID:,DE:67:0C:88:67:3F:1D:21,,,,,,***Device/Error/Activation Status***,,,,,,,,
Main Board Version:,D,,,,,,Device Status:,0x00000101,Activation Status:,Activated,,,,,
Detector Board Version:,B,,,,,,Error status:,0x00000000,Error Code:,0x00000000000000000000000000000000,,,,,
,,,,,,,,,Error Details:,Not found,,,,,
***Scan Data***,,,,,,,,,,,,,,,
Wavelength (nm),Absorbance (AU),Reference Signal (unitless),Sample Signal (unitless)
900.957557108074,0.411405806748276,65443,25378
904.844796792001,0.424760092833434,82171,30900
910.021073788255,0.43150233804657,99678,36906
913.898249598708,0.441166623994128,110587,40044
917.771112320529,0.435246478332258,123185,45218
921.639661953718,0.440285144938694,139111,50475
925.503898498276,0.445438621100955,159569,57215
929.363821954203,0.444421434002538,183258,65863
933.219432321497,0.442382186233378,207371,74880
937.070729600159,0.4367757277964,229890,84090
942.199083389394,0.43132015652181,255937,94801
946.040316794582,0.428434617506799,272586,101641
949.877237111139,0.427153917630447,287311,107448
953.709844339064,0.425751205317127,300732,112831
957.538138478358,0.425031854091544,313797,117928
961.362119529019,0.423619164439168,326713,123182
965.181787491049,0.422711847032519,339646,128326
968.997142364448,0.423409805108259,353609,133387
974.077572946662,0.425461887372717,373087,140071
977.882863946587,0.424763125825734,388028,145915
981.683841857879,0.427764433966375,402790,150423
985.48050668054,0.427491028313436,417062,155851
989.272858414569,0.430035293308552,431192,160190
993.060897059966,0.43130625366713,444758,164747
996.844622616732,0.432117218834865,456216,168676
1000.62403508487,0.434511022108803,468463,172252
1005.65654246006,0.435849702316715,482450,176849
1009.42589105472,0.438320507518853,491458,179129
1013.19092656075,0.43962212122544,499843,181640
1016.95164897815,0.44141771997907,506896,183443
1020.70805830691,0.440543217023987,512583,185875
1024.46015454704,0.441386681039544,516710,187008
1028.20793769854,0.440415951797072,519030,188268
1031.95140776141,0.44123085869948,518900,187868
1036.93599192959,0.439724226107512,518793,188482
1040.66939811898,0.438589368385164,518378,188824
1044.39849121975,0.440457159494707,517629,187742
1048.12327123188,0.439212170266219,517016,188058
1051.84373815538,0.438970912138932,515671,187673
1055.55989199025,0.437702654366137,513781,187532
1059.27173273648,0.438212985400901,511708,186556
1064.21414448248,0.437710377303588,508349,185546
1067.91592135525,0.438602745544419,506188,184378
1071.61338513938,0.436561880198377,504263,184542
1075.30653583488,0.436289158416248,502196,183901
1078.99537344174,0.436923107297974,500791,183119
1082.67989795998,0.435532395429166,499607,183272
1086.36010938958,0.435792974340864,499034,182952
1090.03600773056,0.434614076085887,498043,183085
1094.93049626954,0.434290773143059,499075,183601
1098.59633073703,0.434440134311091,500696,184134
1102.2578521159,0.435148132486348,501788,184235
1105.91506040614,0.433953481795371,503305,185301
1109.56795560774,0.435397438961108,505112,185349
1113.21653772071,0.436336176692613,507576,185851
1116.86080674505,0.435521332063111,510261,187185
1120.50076268076,0.437446353095508,513048,187375
1125.34732801272,0.438375077208397,517118,188458
1128.97722007495,0.439032676195339,520581,189433
1132.60279904855,0.440787463151192,524427,190063
1136.22406493352,0.446555247096736,528466,189000
1139.84101772986,0.453378327138918,532886,187610
1143.45365743757,0.462164748954035,536838,185216
1147.06198405664,0.473102100062523,541119,182050
1150.66599758709,0.481847479686383,545478,179858
1155.46463971203,0.489745242355854,551844,178678
1159.058589369,0.493666634701113,557161,178778
1162.64822593734,0.500942575666856,562302,177430
1166.23354941704,0.511463737157552,568178,174993
1169.81455980812,0.524653558334032,574011,171501
1173.39125711056,0.538948753768111,580020,167685
1176.96364132437,0.554050767173503,586541,163775
1180.53171244955,0.575746138622327,592702,157431
1185.28243136747,0.614265394982303,603044,146583
1188.84043861918,0.636057326750717,610496,141132
1192.39413278225,0.643722442476081,618069,140383
1195.94351385669,0.640033284158389,626553,143524
1199.4885818425,0.632359878513639,634739,147991
1203.02933673968,0.626086951672747,642902,152075
1206.56577854822,0.625654076431196,651802,154334
1210.09790726814,0.628309765698727,661001,155558
1214.80070297904,0.621647172086967,673300,160902
1218.32276782548,0.60836926666817,682816,168242
1221.84051958329,0.587742397909556,693202,179109
1225.35395825247,0.565256726251563,703688,191480
1228.86308383301,0.543649941008289,714299,204282
1232.36789632493,0.524571982918556,724449,216489
1235.86839572821,0.509999633905797,735243,227212
1240.52901901693,0.494636367449824,749881,240080
1244.01945454674,0.486349697766884,760472,248161
1247.50557698792,0.4783861731561,769166,255643
1250.98738634046,0.473162344158744,778059,261728
1254.46488260438,0.468488836993003,786671,267488
1257.93806577966,0.464541596549862,795425,272934
1261.40693586631,0.460302134978172,803958,278568
1264.87149286432,0.457770229857378,812971,283338
1269.48419294603,0.453587610862596,824682,290201
1272.93868607057,0.452318670322815,834168,294398
1276.38886610648,0.450984807482633,843200,298501
1279.83473305376,0.449673854123134,852194,302597
1283.27628691241,0.447994590575632,860946,306889
1286.71352768243,0.447608511959707,868884,309994
1290.14645536381,0.446623551034372,877344,313723
1293.57506995657,0.4460346339871,885846,317193
1298.13984683125,0.445553557634184,896395,321326
1301.55839755053,0.444722174569817,903365,324445
1304.97263518118,0.444404132733543,910138,327117
1308.3825597232,0.443990320179065,917549,330095
1311.78817117658,0.443827577075129,924224,332621
1315.18946954133,0.443054439982994,929653,335171
1318.58645481745,0.442700450580488,934649,337247
1321.97912700494,0.443040087391175,939707,338807
1326.49598067261,0.443901297356058,945677,340284
1329.87858898662,0.443689982500657,950103,342043
1333.25688421201,0.44389383249499,953845,343229
1336.63086634876,0.444959747463369,957047,343537
1340.00053539688,0.445506764186487,959726,344065
1343.36589135636,0.447659359065758,961442,342976
1346.72693422722,0.451375809019895,962546,340444
1350.08366400944,0.458902760562028,963028,334762
1354.55259447009,0.478066640076374,961157,319689
1357.89926037884,0.49452742480565,960021,307435
1361.24161319896,0.509593502506311,959327,296738
1364.57965293045,0.523488600032769,958722,287213
1367.9133795733,0.534975529633868,958383,279617
1371.24279312752,0.54777044973019,958255,271463
1374.56789359312,0.562412055736339,957143,262159
1378.99465163159,0.581643212935464,953901,249954
1382.30968822371,0.595587721897812,950611,241221
1385.62041172719,0.607425610196245,946429,233702
1388.92682214204,0.618797174671087,942188,226642
1392.22891946827,0.63027691692874,937857,219715
1395.52670370586,0.635890863763755,933593,215907
1398.82017485482,0.628092683039939,929852,218938
1402.10933291514,0.614227452448152,927291,225418
1406.4881677466,0.601638504291659,924838,231434
1409.76726193345,0.59955254540182,922749,232023
1413.04204303167,0.599273146715402,921309,231810
1416.31251104126,0.596655126114471,919833,232838
1419.57866596222,0.588105698385656,918729,237182
1422.84050779454,0.582088335818091,917208,240093
1426.09803653824,0.57726217361795,915833,242412
1429.3512521933,0.576283263202103,915750,242937
1433.68216381773,0.572406396778899,915121,244947
1436.92531559932,0.56781812598154,913363,247073
1440.16415429228,0.564211336331538,912936,249017
1443.3986798966,0.558698327691027,911585,251825
1446.6288924123,0.55281498570667,910497,254955
1449.85479183936,0.547358307095683,908051,257485
1453.07637817779,0.542384914862641,905727,259784
1456.29365142759,0.53753879918177,903172,261958
1460.576639845,0.531328884011147,898347,264311
1463.78384922132,0.528609711397005,894476,264825
1466.98674550902,0.52339794802275,889693,266589
1470.18532870808,0.519403919584556,885619,267820
1473.37959881851,0.515879602551214,880836,268544
1476.5695558403,0.513687825140947,875537,268279
1479.75519977347,0.510905815257481,869901,268265
1482.936530618,0.5094020343595,864338,267474
1487.1715958284,0.507144852830451,856064,266294
1490.34286279946,0.50531559559007,849780,265455
1493.50981668188,0.502198787961613,843557,265409
1496.67245747568,0.497496989149628,836401,266022
1499.83078518084,0.493242751735105,829213,266332
1502.98479979738,0.489017482801778,821641,266480
1506.13450132528,0.484999440512306,814056,266474
1510.3273941135,0.480503068875831,803437,265735
1513.46703176792,0.477595243778202,794826,264653
1516.60235633372,0.475265239503922,785238,262867
1519.73336781088,0.47146477969011,777058,262415
1522.86006619941,0.46952729151237,768275,260609
1525.98245149931,0.467302837557458,758619,258655
1529.10052371058,0.464290827807007,748669,257039
1532.21428283322,0.462768523865215,738857,254561
1536.35925241442,0.460350582183081,725937,251506
1539.46294766358,0.459649404363446,715458,248276
1542.56232982411,0.458613805381803,704428,245032
1545.65739889601,0.458292394030447,693680,241472
1548.74815487928,0.458110653245631,682501,237680
1551.83459777391,0.45785149587713,671114,233854
1554.91672757992,0.457135977846237,659970,230350
1557.99454429729,0.458449052975839,647979,225482
1562.09159067147,0.458811880076627,631488,219560
1565.15934351537,0.459119153531291,619340,215184
1568.22278327063,0.459429727865934,606917,210717
1571.28190993727,0.459695139106489,594685,206344
1574.33672351527,0.461589933768346,582323,201175
1577.38722400464,0.462192324676489,569357,196423
1580.43341140538,0.464020228018552,556948,191335
1583.47528571749,0.463986118190182,544505,187075
1587.52440888465,0.464677118559236,527863,181069
1590.55621932328,0.467348547613318,515169,175631
1593.58371667328,0.467750848123889,502141,171031
1596.60690093465,0.469985175316529,490126,166082
1599.62577210739,0.470571368894629,477824,161695
1602.6403301915,0.473337158907372,465418,156497
1605.65057518697,0.474495250283132,452768,151838
1608.65650709382,0.476453467896904,439298,146658
1612.65770705396,0.478354426554132,420391,139733
1615.65357508733,0.481133484189294,406918,134392
1618.64513003206,0.486418459079173,394191,128614
1621.63237188817,0.490969191911353,381894,123303
1624.61530065564,0.497782081103117,369376,117405
1627.59391633449,0.502598740932975,357586,112404
1630.5682189247,0.50580540571556,345747,107883
1633.53820842628,0.508520334756086,334364,103681
1637.4914851794,0.512831828714321,319040,97952
1640.4514108075,0.509851699446162,307846,95166
1643.40702334698,0.511281159032889,296739,91431
1646.35832279782,0.509346391848809,284919,88181
1649.30530916003,0.508908379597357,273144,84622
1652.2479824336,0.507030862807894,260926,81187
1655.18634261855,0.507579343300919,248001,77068
1659.09744694949,0.501222541947449,228681,72112
1662.02574326097,0.492280687659579,212222,68314
1664.94972648381,0.485896460413437,193672,63266
1667.86939661802,0.474311829096686,173346,58157
1670.78475366359,0.466451322825139,152416,52069
1673.69579762054,0.460443034587263,131239,45459
1676.60252848885,0.461816829831215,111046,38343
1679.50494626853,0.489027088122705,93078,30187
1683.36812739246,0.567243409912879,72973,19766
1686.26048129867,0.686423690673292,60866,12530
1689.14852211624,0.842275341250174,50915,7321
1692.03224984519,0.959696103381718,42552,4669
1694.9116644855,1.02454799722249,35956,3398
1697.78676603718,1.15902038140153,30257,2098
1700.65755450023,1.21690768701163,25607,1554
