***Scan Config Information***,,,,,,,***Reference Scan Information***,,,,,,,,
Scan Config Name:,Column 1,,,,,,Scan Config Name:,Built-in Factory Reference,,,,,,,
Scan Config Type:,Slew,Num Section:,1,,,,Scan Config Type:,Slew,Num Section:,1,,,,,
Section Config Type:,Column,,,,,,Section Config Type:,Column,,,,,,,
Start Wavelength (nm):,900,,,,,,Start Wavelength (nm):,900,,,,,,,
End Wavelength (nm):,1700,,,,,,End Wavelength (nm):,1700,,,,,,,
Pattern Width (nm):,7.03,,,,,,Pattern Width (nm):,7.03,,,,,,,
Exposure (ms):,0.635,,,,,,Exposure (ms):,0.635,,,,,,,
Digital Resolution:,228,,,,,,Digital Resolution:,228,,,,,,,
Num Repeats:,6,,,,,,Num Repeats:,30,,,,,,,
PGA Gain:,64,,,,,,PGA Gain:,64,,,,,,,
System Temp (C):,32.49,,,,,,System Temp (C):,27.24,,,,,,,
Humidity (%):,13.21,,,,,,Humidity (%):,42.33,,,,,,,
Lamp Intensity:,3081,,,,,,Lamp Intensity:,3003,,,,,,,
Data Date-Time:,2022/11/26T19:13:17,,,,,,Data Date-Time:,2021/11/04T14:10:50,,,,,,,
Total Measurement Time in sec:,3.2341386,,,,,,,,,,,,,,
,,,,,,,,,,,,,,,
***General Information***,,,,,,,***Calibration Coefficients***,,,,,,,,
Model Name:,NIR-S-G1,,,,,,Shift Vector Coefficients:,-5.53788089867561,0.0467532770725977,-9.86615555338903E-05,,,,,
Serial Number:,A43R020,(95UB122GC0AA43R020),,,,,Pixel to Wavelength Coefficients:,1754.84743575991,-0.928654795541597,-0.000239616035096235,,,,,
GUI Version:,3.7.6,,,,,,Versions (Cal/Ref/Cfg):,1,3,1,,,,,
TIVA Version:,2.4.7,,,,,,***Lamp Usage ***,,,,,,,,
DLPC Version:,2.2.0,,,,,,Total Time(hh:mm:ss):,15min 51sec ,,,,,,,
UUID:,DE:67:0C:88:67:3F:1D:21,,,,,,***Device/Error/Activation Status***,,,,,,,,
Main Board Version:,D,,,,,,Device Status:,0x00000001,Activation Status:,Activated,,,,,
Detector Board Version:,B,,,,,,Error status:,0x00000000,Error Code:,0x00000000000000000000000000000000,,,,,
,,,,,,,,,Error Details:,Not found,,,,,
***Scan Data***,,,,,,,,,,,,,,,
Wavelength (nm),Absorbance (AU),Reference Signal (unitless),Sample Signal (unitless)
900.957557108074,0.187658245193424,65443,42482
904.844796792001,0.192101100584585,82171,52798
910.021073788255,0.200722665853127,99678,62788
913.898249598708,0.206431374194245,110587,68750
917.771112320529,0.208568661436714,123185,76206
921.639661953718,0.210639175854327,139111,85649
925.503898498276,0.209300708538844,159569,98548
929.363821954203,0.209293252949975,183258,113180
933.219432321497,0.207976723522528,207371,128461
937.070729600159,0.203652483209792,229890,143836
942.199083389394,0.199189452997361,255937,161787
946.040316794582,0.196123974569673,272586,173532
949.877237111139,0.191991181960487,287311,184655
953.709844339064,0.190283900276119,300732,194042
957.538138478358,0.188926034090955,313797,203106
961.362119529019,0.188123597350539,326713,211857
965.181787491049,0.187493844066127,339646,220563
968.997142364448,0.18802456560775,353609,229350
974.077572946662,0.189396803439016,373087,241220
977.882863946587,0.190603533461696,388028,250184
981.683841857879,0.191158937825262,402790,259370
985.48050668054,0.192227907927573,417062,267900
989.272858414569,0.193593277466984,431192,276107
993.060897059966,0.19492931191564,444758,283919
996.844622616732,0.196028860661465,456216,290497
1000.62403508487,0.197223362135593,468463,297476
1005.65654246006,0.198621675101637,482450,305373
1009.42589105472,0.198714848502767,491458,311008
1013.19092656075,0.200510652428259,499843,315009
1016.95164897815,0.200407224742854,506896,319530
1020.70805830691,0.200433961332428,512583,323095
1024.46015454704,0.199704333373771,516710,326244
1028.20793769854,0.198842213856311,519030,328360
1031.95140776141,0.197415453915848,518900,329358
1036.93599192959,0.195345904317485,518793,330863
1040.66939811898,0.194351722816324,518378,331356
1044.39849121975,0.1940410557855,517629,331114
1048.12327123188,0.193572348560206,517016,331079
1051.84373815538,0.192526346159674,515671,331014
1055.55989199025,0.191906283326331,513781,330272
1059.27173273648,0.191094301617829,511708,329555
1064.21414448248,0.190394068261984,508349,327920
1067.91592135525,0.189564920661271,506188,327150
1071.61338513938,0.188537215155831,504263,326678
1075.30653583488,0.187680961538751,502196,325981
1078.99537344174,0.186797422740664,500791,325731
1082.67989795998,0.186081524478562,499607,325497
1086.36010938958,0.185990282782978,499034,325192
1090.03600773056,0.184627796775278,498043,325566
1094.93049626954,0.184041939107124,499075,326681
1098.59633073703,0.184087078388014,500696,327708
1102.2578521159,0.184098608741436,501788,328414
1105.91506040614,0.184327885499137,503305,329233
1109.56795560774,0.183991577459169,505112,330671
1113.21653772071,0.184842029732618,507576,331634
1116.86080674505,0.18559731363111,510261,332809
1120.50076268076,0.186900713902651,513048,333624
1125.34732801272,0.188770480504682,517118,334826
1128.97722007495,0.191193372852366,520581,335193
1132.60279904855,0.195286324367693,524427,334502
1136.22406493352,0.201554675926326,528466,332248
1139.84101772986,0.209789686372885,532886,328734
1143.45365743757,0.220892233848784,536838,322813
1147.06198405664,0.23386002984982,541119,315815
1150.66599758709,0.244394054447023,545478,310730
1155.46463971203,0.25391471495731,551844,307540
1159.058589369,0.258880530674708,557161,306973
1162.64822593734,0.267680735523778,562302,303591
1166.23354941704,0.280236088815578,568178,298022
1169.81455980812,0.295200381387627,574011,290884
1173.39125711056,0.310237804913135,580020,283926
1176.96364132437,0.326911203117563,586541,276304
1180.53171244955,0.350335193435505,592702,264546
1185.28243136747,0.38929562634192,603044,246067
1188.84043861918,0.412463609930513,610496,236167
1192.39413278225,0.420855224218897,618069,234521
1195.94351385669,0.418701672232123,626553,238922
1199.4885818425,0.410440117367892,634739,246692
1203.02933673968,0.405620317393124,642902,252653
1206.56577854822,0.404069359411585,651802,257067
1210.09790726814,0.404381051822277,661001,260508
1214.80070297904,0.397224621854524,673300,269764
1218.32276782548,0.382119971501417,682816,283259
1221.84051958329,0.361074382005509,693202,301846
1225.35395825247,0.337495120295097,703688,323508
1228.86308383301,0.315188200300729,714299,345694
1232.36789632493,0.295782187580527,724449,366628
1235.86839572821,0.280469608797386,735243,385444
1240.52901901693,0.263854512746807,749881,408449
1244.01945454674,0.254366225048197,760472,423367
1247.50557698792,0.246682031806594,769166,435851
1250.98738634046,0.240251518383749,778059,447467
1254.46488260438,0.235053796938432,786671,457867
1257.93806577966,0.230840846342908,795425,467475
1261.40693586631,0.227118507982205,803958,476557
1264.87149286432,0.223584467485461,812971,485837
1269.48419294603,0.219493430415076,824682,497500
1272.93868607057,0.217237781127694,834168,505843
1276.38886610648,0.215292053595297,843200,513616
1279.83473305376,0.213229199431244,852194,521566
1283.27628691241,0.211898873936007,860946,528539
1286.71352768243,0.210418106420295,868884,535234
1290.14645536381,0.209277207322649,877344,541867
1293.57506995657,0.208271869520496,885846,548386
1298.13984683125,0.20712713468179,896395,556381
1301.55839755053,0.206711549038435,903365,561244
1304.97263518118,0.206033078283912,910138,566336
1308.3825597232,0.206367527502974,917549,570508
1311.78817117658,0.206098823283876,924224,575014
1315.18946954133,0.206242787771218,929653,578200
1318.58645481745,0.207025911976949,934649,580260
1321.97912700494,0.207770349981351,939707,582401
1326.49598067261,0.209560573726559,945677,583690
1329.87858898662,0.211499159716052,950103,583810
1333.25688421201,0.213692314396081,953845,583157
1336.63086634876,0.216737699419779,957047,581026
1340.00053539688,0.220090204847815,959726,578172
1343.36589135636,0.22464645836974,961442,573161
1346.72693422722,0.230733221187473,962546,565833
1350.08366400944,0.240686878359335,963028,553289
1354.55259447009,0.262189382861479,961157,525539
1357.89926037884,0.281707670029531,960021,501849
1361.24161319896,0.299808048093571,959327,481015
1364.57965293045,0.315111070837862,958722,464068
1367.9133795733,0.328191494905538,958383,450140
1371.24279312752,0.343101672528099,958255,434890
1374.56789359312,0.358320443405011,957143,419427
1378.99465163159,0.380793756468898,953901,396926
1382.30968822371,0.396206725419218,950611,381765
1385.62041172719,0.410792881364151,946429,367532
1388.92682214204,0.425091370004357,942188,354035
1392.22891946827,0.440263189418514,937857,340309
1395.52670370586,0.450284984952826,933593,331034
1398.82017485482,0.450354162287923,929852,329655
1402.10933291514,0.443278478330677,927291,334147
1406.4881677466,0.441171267427489,924838,334884
1409.76726193345,0.448190080598338,922749,328771
1413.04204303167,0.457117633311081,921309,321579
1416.31251104126,0.462496309598761,919833,317112
1419.57866596222,0.465396957411985,918729,314623
1422.84050779454,0.467991814047197,917208,312231
1426.09803653824,0.472233235268159,915833,308733
1429.3512521933,0.478971921954974,915750,303952
1433.68216381773,0.484309497076173,915121,300033
1436.92531559932,0.486202774351213,913363,298154
1440.16415429228,0.487296554687387,912936,297265
1443.3986798966,0.48713139126188,911585,296938
1446.6288924123,0.485460297832381,910497,297727
1449.85479183936,0.483692907268295,908051,298138
1453.07637817779,0.481291267704406,905727,299024
1456.29365142759,0.478864963650764,903172,299851
1460.576639845,0.47469586658642,898347,301126
1463.78384922132,0.470323906392978,894476,302862
1466.98674550902,0.466678136572926,889693,303782
1470.18532870808,0.462040997103872,885619,305637
1473.37959881851,0.458052441026316,880836,306791
1476.5695558403,0.454744449912488,875537,307277
1479.75519977347,0.451900203595939,869901,307305
1482.936530618,0.449030607451896,864338,307364
1487.1715958284,0.446019081012921,856064,306540
1490.34286279946,0.44355385638907,849780,306022
1493.50981668188,0.439164246044617,843557,306867
1496.67245747568,0.434230593938492,836401,307740
1499.83078518084,0.42857131217817,829213,309097
1502.98479979738,0.422605112611005,821641,310511
1506.13450132528,0.417949753991357,814056,310960
1510.3273941135,0.412314343597149,803437,310912
1513.46703176792,0.408225846514781,794826,310489
1516.60235633372,0.404618580001745,785238,309302
1519.73336781088,0.401222200208249,777058,308483
1522.86006619941,0.397643335299735,768275,307520
1525.98245149931,0.39450387127209,758619,305858
1529.10052371058,0.392195553032862,748669,303455
1532.21428283322,0.389745799232779,738857,301172
1536.35925241442,0.387993357002166,725937,297102
1539.46294766358,0.387088511005036,715458,293424
1542.56232982411,0.385537463003259,704428,289934
1545.65739889601,0.385586527697365,693680,285478
1548.74815487928,0.384680436730107,682501,281464
1551.83459777391,0.384581577124431,671114,276831
1554.91672757992,0.384987224992604,659970,271980
1557.99454429729,0.38475536029723,647979,267181
1562.09159067147,0.384899276348445,631488,260295
1565.15934351537,0.385739932944412,619340,254794
1568.22278327063,0.385768159619792,606917,249667
1571.28190993727,0.386480861956626,594685,244234
1574.33672351527,0.386535328383501,582323,239127
1577.38722400464,0.386924840199043,569357,233593
1580.43341140538,0.387499008651169,556948,228200
1583.47528571749,0.387718432163234,544505,222989
1587.52440888465,0.389200928839614,527863,215437
1590.55621932328,0.388015253035436,515169,210831
1593.58371667328,0.387439404406717,502141,205772
1596.60690093465,0.387782008435844,490126,200690
1599.62577210739,0.387670476412546,477824,195703
1602.6403301915,0.387421889794065,465418,190731
1605.65057518697,0.386570637996127,452768,185911
1608.65650709382,0.386414373472103,439298,180445
1612.65770705396,0.387033025653317,420391,172433
1615.65357508733,0.387889257803383,406918,166578
1618.64513003206,0.390082869529533,394191,160555
1621.63237188817,0.393712031438712,381894,154252
1624.61530065564,0.395827040324812,369376,148471
1627.59391633449,0.398968707903127,357586,142696
1630.5682189247,0.402364489498342,345747,136897
1633.53820842628,0.401807016648209,334364,132560
1637.4914851794,0.40507685018212,319040,125536
1640.4514108075,0.403282096485196,307846,121633
1643.40702334698,0.40305440269758,296739,117306
1646.35832279782,0.39888074141942,284919,113721
1649.30530916003,0.399144500020955,273144,108955
1652.2479824336,0.397750304470139,260926,104416
1655.18634261855,0.394479490460788,248001,99994
1659.09744694949,0.39163998942086,228681,92809
1662.02574326097,0.385438008952817,212222,87368
1664.94972648381,0.380888083536966,193672,80571
1667.86939661802,0.375644510995746,173346,72991
1670.78475366359,0.369396205020684,152416,65108
1673.69579762054,0.369665544012596,131239,56027
1676.60252848885,0.37521994872323,111046,46804
1679.50494626853,0.398888224778782,93078,37150
1683.36812739246,0.477234346816434,72973,24318
1686.26048129867,0.595727465667725,60866,15440
1689.14852211624,0.717529443113653,50915,9757
1692.03224984519,0.849323486054699,42552,6020
1694.9116644855,0.944898371375466,35956,4082
1697.78676603718,1.09504090641573,30257,2431
1700.65755450023,1.14001478752546,25607,1855
