***Scan Config Information***,,,,,,,***Reference Scan Information***,,,,,,,,
Scan Config Name:,Column 1,,,,,,Scan Config Name:,Built-in Factory Reference,,,,,,,
Scan Config Type:,Slew,Num Section:,1,,,,Scan Config Type:,Slew,Num Section:,1,,,,,
Section Config Type:,Column,,,,,,Section Config Type:,Column,,,,,,,
Start Wavelength (nm):,900,,,,,,Start Wavelength (nm):,900,,,,,,,
End Wavelength (nm):,1700,,,,,,End Wavelength (nm):,1700,,,,,,,
Pattern Width (nm):,7.03,,,,,,Pattern Width (nm):,7.03,,,,,,,
Exposure (ms):,0.635,,,,,,Exposure (ms):,0.635,,,,,,,
Digital Resolution:,228,,,,,,Digital Resolution:,228,,,,,,,
Num Repeats:,6,,,,,,Num Repeats:,30,,,,,,,
PGA Gain:,64,,,,,,PGA Gain:,64,,,,,,,
System Temp (C):,32.67,,,,,,System Temp (C):,27.24,,,,,,,
Humidity (%):,13.21,,,,,,Humidity (%):,42.33,,,,,,,
Lamp Intensity:,3081,,,,,,Lamp Intensity:,3003,,,,,,,
Data Date-Time:,2022/11/26T19:17:36,,,,,,Data Date-Time:,2021/11/04T14:10:50,,,,,,,
Total Measurement Time in sec:,3.2341561,,,,,,,,,,,,,,
,,,,,,,,,,,,,,,
***General Information***,,,,,,,***Calibration Coefficients***,,,,,,,,
Model Name:,NIR-S-G1,,,,,,Shift Vector Coefficients:,-5.53788089867561,0.0467532770725977,-9.86615555338903E-05,,,,,
Serial Number:,A43R020,(95UB122GC0AA43R020),,,,,Pixel to Wavelength Coefficients:,1754.84743575991,-0.928654795541597,-0.000239616035096235,,,,,
GUI Version:,3.7.6,,,,,,Versions (Cal/Ref/Cfg):,1,3,1,,,,,
TIVA Version:,2.4.7,,,,,,***Lamp Usage ***,,,,,,,,
DLPC Version:,2.2.0,,,,,,Total Time(hh:mm:ss):,16min 13sec ,,,,,,,
UUID:,DE:67:0C:88:67:3F:1D:21,,,,,,***Device/Error/Activation Status***,,,,,,,,
Main Board Version:,D,,,,,,Device Status:,0x00000001,Activation Status:,Activated,,,,,
Detector Board Version:,B,,,,,,Error status:,0x00000000,Error Code:,0x00000000000000000000000000000000,,,,,
,,,,,,,,,Error Details:,Not found,,,,,
***Scan Data***,,,,,,,,,,,,,,,
Wavelength (nm),Absorbance (AU),Reference Signal (unitless),Sample Signal (unitless)
900.957557108074,0.331164846771023,65443,30528
904.844796792001,0.333485937839638,82171,38127
910.021073788255,0.345116658036965,99678,45028
913.898249598708,0.34820488868513,110587,49602
917.771112320529,0.348280572710044,123185,55243
921.639661953718,0.351495457296496,139111,61925
925.503898498276,0.352847795796786,159569,70811
929.363821954203,0.353127338981885,183258,81271
933.219432321497,0.351706328875616,207371,92266
937.070729600159,0.3461184065734,229890,103610
942.199083389394,0.34122971699033,255937,116655
946.040316794582,0.337788230258058,272586,125232
949.877237111139,0.334037177281995,287311,133142
953.709844339064,0.332057811119782,300732,139998
957.538138478358,0.330283807687131,313797,146678
961.362119529019,0.330512284492258,326713,152635
965.181787491049,0.328933427871882,339646,159255
968.997142364448,0.330568477526266,353609,165179
974.077572946662,0.331168528124074,373087,174037
977.882863946587,0.332099631832391,388028,180619
981.683841857879,0.333513530511157,402790,186881
985.48050668054,0.334629811355013,417062,193006
989.272858414569,0.336654276866266,431192,198617
993.060897059966,0.336382618803949,444758,204994
996.844622616732,0.337971974303124,456216,209507
1000.62403508487,0.339134631300457,468463,214556
1005.65654246006,0.34016978895865,482450,220436
1009.42589105472,0.341151152717125,491458,224045
1013.19092656075,0.34201068827048,499843,227417
1016.95164897815,0.343006020327772,506896,230098
1020.70805830691,0.342995811086775,512583,232685
1024.46015454704,0.342058896954172,516710,235065
1028.20793769854,0.340348837051397,519030,237052
1031.95140776141,0.338223966856075,518900,238155
1036.93599192959,0.337221750232841,518793,238656
1040.66939811898,0.33602157872891,518378,239125
1044.39849121975,0.334040853882488,517629,239871
1048.12327123188,0.334082427446675,517016,239564
1051.84373815538,0.33264126521415,515671,239735
1055.55989199025,0.329935720161636,513781,240349
1059.27173273648,0.329994218388513,511708,239347
1064.21414448248,0.328793788947116,508349,238434
1067.91592135525,0.3269381963709,506188,238437
1071.61338513938,0.325257955137754,504263,238451
1075.30653583488,0.323871329506222,502196,238233
1078.99537344174,0.322332047582712,500791,238410
1082.67989795998,0.321996818041675,499607,238030
1086.36010938958,0.320406914532386,499034,238629
1090.03600773056,0.320157378117879,498043,238292
1094.93049626954,0.317652482242077,499075,240167
1098.59633073703,0.317997002686302,500696,240756
1102.2578521159,0.318155571792945,501788,241193
1105.91506040614,0.317940511982032,503305,242042
1109.56795560774,0.317374117483531,505112,243228
1113.21653772071,0.317787432368423,507576,244182
1116.86080674505,0.318107221042413,510261,245293
1120.50076268076,0.318686534072459,513048,246304
1125.34732801272,0.320212781043354,517118,247387
1128.97722007495,0.323539999168661,520581,247143
1132.60279904855,0.325885293109351,524427,247628
1136.22406493352,0.331942498003017,528466,246079
1139.84101772986,0.341292626148354,532886,242852
1143.45365743757,0.35161801060444,536838,238905
1147.06198405664,0.364463137136681,541119,233792
1150.66599758709,0.375930214455571,545478,229534
1155.46463971203,0.387696356049477,551844,226006
1159.058589369,0.394244295788378,557161,224769
1162.64822593734,0.4048842158607,562302,221353
1166.23354941704,0.41957649941148,568178,216226
1169.81455980812,0.433540033273384,574011,211534
1173.39125711056,0.450044027069674,580020,205778
1176.96364132437,0.468070393017692,586541,199631
1180.53171244955,0.492062315267738,592702,190886
1185.28243136747,0.53310262017382,603044,176704
1188.84043861918,0.556610495102418,610496,169462
1192.39413278225,0.567686415482532,618069,167244
1195.94351385669,0.564986424073849,626553,170597
1199.4885818425,0.559194959995208,634739,175146
1203.02933673968,0.555015244084742,642902,179114
1206.56577854822,0.554820519862219,651802,181675
1210.09790726814,0.555788091798304,661001,183829
1214.80070297904,0.54813357066606,673300,190579
1218.32276782548,0.531726023099111,682816,200714
1221.84051958329,0.506355793246276,693202,216025
1225.35395825247,0.48049791917976,703688,232746
1228.86308383301,0.456178092062066,714299,249863
1232.36789632493,0.435542715268177,724449,265745
1235.86839572821,0.416861484357428,735243,281559
1240.52901901693,0.399595768934208,749881,298811
1244.01945454674,0.389084569569306,760472,310455
1247.50557698792,0.380522803552935,769166,320256
1250.98738634046,0.373806072495784,778059,329008
1254.46488260438,0.368011198785461,786671,337118
1257.93806577966,0.363359587245566,795425,344540
1261.40693586631,0.358859759941017,803958,351863
1264.87149286432,0.355344887950104,812971,358699
1269.48419294603,0.351801543643267,824682,366847
1272.93868607057,0.349223458003385,834168,373276
1276.38886610648,0.346860744687598,843200,379376
1279.83473305376,0.344796952076199,852194,385249
1283.27628691241,0.342406135547978,860946,391354
1286.71352768243,0.341125162408108,868884,396129
1290.14645536381,0.339854452924782,877344,401158
1293.57506995657,0.338949876832958,885846,405890
1298.13984683125,0.337019675857186,896395,412553
1301.55839755053,0.336592489749344,903365,416170
1304.97263518118,0.335815563627681,910138,420041
1308.3825597232,0.335651785152053,917549,423621
1311.78817117658,0.335346315707703,924224,427003
1315.18946954133,0.335137329341557,929653,429718
1318.58645481745,0.335881170987382,934649,431288
1321.97912700494,0.336286971414168,939707,433217
1326.49598067261,0.338218074752648,945677,434035
1329.87858898662,0.340455112866165,950103,433826
1333.25688421201,0.342500727845599,953845,433488
1336.63086634876,0.344967237885553,957047,432480
1340.00053539688,0.34861316067933,959726,430065
1343.36589135636,0.353379960869987,961442,426131
1346.72693422722,0.360162896968173,962546,420009
1350.08366400944,0.370644317109852,963028,410199
1354.55259447009,0.393651549279902,961157,388278
1357.89926037884,0.414970814649145,960021,369241
1361.24161319896,0.433877120733531,959327,353256
1364.57965293045,0.449606189229399,958722,340476
1367.9133795733,0.464229694605698,958383,329086
1371.24279312752,0.480180776207101,958255,317176
1374.56789359312,0.49705163970904,957143,304737
1378.99465163159,0.520036932215461,953901,288049
1382.30968822371,0.537655867454153,950611,275643
1385.62041172719,0.552827415945934,946429,265009
1388.92682214204,0.567789882912086,942188,254887
1392.22891946827,0.582798628760618,937857,245097
1395.52670370586,0.590915540468694,933593,239465
1398.82017485482,0.589805192432338,929852,239116
1402.10933291514,0.582266176655726,927291,242633
1406.4881677466,0.579588103434612,924838,243488
1409.76726193345,0.586151773860126,922749,239294
1413.04204303167,0.594968653249951,921309,234119
1416.31251104126,0.601528209707477,919833,230240
1419.57866596222,0.603627019960595,918729,228855
1422.84050779454,0.606122591330648,917208,227167
1426.09803653824,0.611672978585517,915833,223946
1429.3512521933,0.618098583564196,915750,220637
1433.68216381773,0.624057200296608,915121,217481
1436.92531559932,0.626368645653999,913363,215911
1440.16415429228,0.626507645604725,912936,215741
1443.3986798966,0.626849974950471,911585,215252
1446.6288924123,0.624828789287658,910497,215998
1449.85479183936,0.621776610980818,908051,216937
1453.07637817779,0.618506955102548,905727,218017
1456.29365142759,0.615780713231093,903172,218771
1460.576639845,0.612455002149854,898347,219275
1463.78384922132,0.610019426303984,894476,219558
1466.98674550902,0.606407081071809,889693,220208
1470.18532870808,0.604236370912388,885619,220298
1473.37959881851,0.601104529883242,880836,220694
1476.5695558403,0.597593451731896,875537,221147
1479.75519977347,0.595649787047456,869901,220709
1482.936530618,0.594895063918287,864338,219679
1487.1715958284,0.5929911936609,856064,218532
1490.34286279946,0.588525397903389,849780,219170
1493.50981668188,0.587273620058962,843557,218193
1496.67245747568,0.582490306501461,836401,218738
1499.83078518084,0.577182116308353,829213,219525
1502.98479979738,0.571722807414652,821641,220272
1506.13450132528,0.567994777475448,814056,220120
1510.3273941135,0.56090162225492,803437,220826
1513.46703176792,0.557831618069773,794826,220009
1516.60235633372,0.554422364899823,785238,219068
1519.73336781088,0.550668203184328,777058,218668
1522.86006619941,0.546307817071686,768275,218378
1525.98245149931,0.543115909023661,758619,217224
1529.10052371058,0.540258535727908,748669,215790
1532.21428283322,0.537445008851751,738857,214346
1536.35925241442,0.535284763456002,725937,211648
1539.46294766358,0.533315131991598,715458,209541
1542.56232982411,0.532424702541895,704428,206734
1545.65739889601,0.532300350187041,693680,203638
1548.74815487928,0.531475862678697,682501,200737
1551.83459777391,0.531339160584778,671114,197450
1554.91672757992,0.531397984205824,659970,194145
1557.99454429729,0.531180633435822,647979,190713
1562.09159067147,0.532201498841853,631488,185423
1565.15934351537,0.533330154756292,619340,181384
1568.22278327063,0.533087642653625,606917,177845
1571.28190993727,0.534144765717457,594685,173837
1574.33672351527,0.535121405536837,582323,169841
1577.38722400464,0.53653156301454,569357,165521
1580.43341140538,0.53680929084761,556948,161810
1583.47528571749,0.536068517111176,544505,158465
1587.52440888465,0.536031056900742,527863,153635
1590.55621932328,0.536957168668328,515169,149621
1593.58371667328,0.537369112113379,502141,145699
1596.60690093465,0.537683101948966,490126,142110
1599.62577210739,0.536972371284409,477824,138770
1602.6403301915,0.53653253971584,465418,135304
1605.65057518697,0.536586835781493,452768,131610
1608.65650709382,0.537773917937154,439298,127346
1612.65770705396,0.537596266804052,420391,121915
1615.65357508733,0.540612641133037,406918,117191
1618.64513003206,0.542079014504594,394191,113143
1621.63237188817,0.546341014359657,381894,108543
1624.61530065564,0.551937079271352,369376,103641
1627.59391633449,0.554890129775415,357586,99653
1630.5682189247,0.55517723377737,345747,96290
1633.53820842628,0.559107219967166,334364,92281
1637.4914851794,0.55912564116448,319040,88048
1640.4514108075,0.56173900370064,307846,84449
1643.40702334698,0.559005891467715,296739,81916
1646.35832279782,0.558923302290218,284919,78668
1649.30530916003,0.55861156056911,273144,75471
1652.2479824336,0.559221052861527,260926,71994
1655.18634261855,0.556738763725201,248001,68820
1659.09744694949,0.555390737621328,228681,63656
1662.02574326097,0.552572802219205,212222,59459
1664.94972648381,0.546222742778603,193672,55061
1667.86939661802,0.541135420443109,173346,49863
1670.78475366359,0.535432452052846,152416,44422
1673.69579762054,0.535204450314438,131239,38270
1676.60252848885,0.545499851345949,111046,31623
1679.50494626853,0.570264753540661,93078,25037
1683.36812739246,0.643289637618231,72973,16591
1686.26048129867,0.755518952276998,60866,10687
1689.14852211624,0.88461226786476,50915,6641
1692.03224984519,1.01730286675819,42552,4089
1694.9116644855,1.20902731715067,35956,2222
1697.78676603718,1.24177677211887,30257,1734
1700.65755450023,1.32485608164626,25607,1212
