***Scan Config Information***,,,,,,,***Reference Scan Information***,,,,,,,,
Scan Config Name:,Column 1,,,,,,Scan Config Name:,Built-in Factory Reference,,,,,,,
Scan Config Type:,Slew,Num Section:,1,,,,Scan Config Type:,Slew,Num Section:,1,,,,,
Section Config Type:,Column,,,,,,Section Config Type:,Column,,,,,,,
Start Wavelength (nm):,900,,,,,,Start Wavelength (nm):,900,,,,,,,
End Wavelength (nm):,1700,,,,,,End Wavelength (nm):,1700,,,,,,,
Pattern Width (nm):,7.03,,,,,,Pattern Width (nm):,7.03,,,,,,,
Exposure (ms):,0.635,,,,,,Exposure (ms):,0.635,,,,,,,
Digital Resolution:,228,,,,,,Digital Resolution:,228,,,,,,,
Num Repeats:,6,,,,,,Num Repeats:,30,,,,,,,
PGA Gain:,64,,,,,,PGA Gain:,64,,,,,,,
System Temp (C):,34,,,,,,System Temp (C):,27.24,,,,,,,
Humidity (%):,9.56,,,,,,Humidity (%):,42.33,,,,,,,
Lamp Intensity:,3094,,,,,,Lamp Intensity:,3003,,,,,,,
Data Date-Time:,2022/11/18T00:38:24,,,,,,Data Date-Time:,2021/11/04T14:10:50,,,,,,,
Total Measurement Time in sec:,3.2270516,,,,,,,,,,,,,,
,,,,,,,,,,,,,,,
***General Information***,,,,,,,***Calibration Coefficients***,,,,,,,,
Model Name:,NIR-S-G1,,,,,,Shift Vector Coefficients:,-5.53788089867561,0.0467532770725977,-9.86615555338903E-05,,,,,
Serial Number:,A43R020,(95UB122GC0AA43R020),,,,,Pixel to Wavelength Coefficients:,1754.84743575991,-0.928654795541597,-0.000239616035096235,,,,,
GUI Version:,3.7.6,,,,,,Versions (Cal/Ref/Cfg):,1,3,1,,,,,
TIVA Version:,2.4.7,,,,,,***Lamp Usage ***,,,,,,,,
DLPC Version:,2.2.0,,,,,,Total Time(hh:mm:ss):,12min 2sec ,,,,,,,
UUID:,DE:67:0C:88:67:3F:1D:21,,,,,,***Device/Error/Activation Status***,,,,,,,,
Main Board Version:,D,,,,,,Device Status:,0x00000001,Activation Status:,Activated,,,,,
Detector Board Version:,B,,,,,,Error status:,0x00000000,Error Code:,0x00000000000000000000000000000000,,,,,
,,,,,,,,,Error Details:,Not found,,,,,
***Scan Data***,,,,,,,,,,,,,,,
Wavelength (nm),Absorbance (AU),Reference Signal (unitless),Sample Signal (unitless)
900.957557108074,0.269542675524211,65443,35182
904.844796792001,0.279264985829625,82171,43197
910.021073788255,0.285974864239962,99678,51597
913.898249598708,0.290082721918785,110587,56705
917.771112320529,0.287291953126214,123185,63572
921.639661953718,0.290607081748982,139111,71245
925.503898498276,0.291567164086081,159569,81542
929.363821954203,0.290499113840625,183258,93878
933.219432321497,0.285873158609312,207371,107368
937.070729600159,0.27922671039307,229890,120863
942.199083389394,0.273248662831979,255937,136422
946.040316794582,0.266646755123852,272586,147522
949.877237111139,0.263757443004608,287311,156529
953.709844339064,0.259775443297097,300732,165350
957.538138478358,0.255847521654339,313797,174101
961.362119529019,0.254567758939219,326713,181802
965.181787491049,0.252439795906375,339646,189927
968.997142364448,0.253178361821069,353609,197399
974.077572946662,0.251896624806485,373087,208888
977.882863946587,0.251162263687627,388028,217621
981.683841857879,0.253471741907529,402790,224702
985.48050668054,0.251811452334735,417062,233555
989.272858414569,0.252608603159251,431192,241025
993.060897059966,0.254104846626649,444758,247753
996.844622616732,0.254153883474931,456216,254107
1000.62403508487,0.255116045139302,468463,260351
1005.65654246006,0.255351548580609,482450,267979
1009.42589105472,0.256276117066532,491458,272402
1013.19092656075,0.256548302332109,499843,276876
1016.95164897815,0.256917879273242,506896,280544
1020.70805830691,0.257321446344691,512583,283428
1024.46015454704,0.255635920984948,516710,286821
1028.20793769854,0.254959341631314,519030,288558
1031.95140776141,0.253399100436152,518900,289524
1036.93599192959,0.250643186888414,518793,291307
1040.66939811898,0.248994590629515,518378,292181
1044.39849121975,0.249611030330414,517629,291345
1048.12327123188,0.2475578069486,517016,292379
1051.84373815538,0.246594412713554,515671,292266
1055.55989199025,0.244566061303369,513781,292558
1059.27173273648,0.243886318943884,511708,291834
1064.21414448248,0.242448112028556,508349,290880
1067.91592135525,0.241464809463979,506188,290300
1071.61338513938,0.240205196255485,504263,290036
1075.30653583488,0.238974227735252,502196,289667
1078.99537344174,0.23862194392249,500791,289091
1082.67989795998,0.237274076280766,499607,289304
1086.36010938958,0.236958878818133,499034,289182
1090.03600773056,0.234913771903983,498043,289970
1094.93049626954,0.23470584431606,499075,290710
1098.59633073703,0.234907256354932,500696,291519
1102.2578521159,0.234253370749506,501788,292595
1105.91506040614,0.2345310277671,503305,293292
1109.56795560774,0.234935487825306,505112,294071
1113.21653772071,0.23510381986564,507576,295391
1116.86080674505,0.23571787993489,510261,296534
1120.50076268076,0.236906122461483,513048,297339
1125.34732801272,0.239028133010937,517118,298237
1128.97722007495,0.240910094300204,520581,298936
1132.60279904855,0.245601419446227,524427,297909
1136.22406493352,0.251563976972593,528466,296110
1139.84101772986,0.259735564443716,532886,293021
1143.45365743757,0.271205400695291,536838,287500
1147.06198405664,0.284359329633949,541119,281147
1150.66599758709,0.296721849579257,545478,275458
1155.46463971203,0.307976113864101,551844,271544
1159.058589369,0.316170311883823,557161,269036
1162.64822593734,0.325962358197151,562302,265465
1166.23354941704,0.34007099828589,568178,259665
1169.81455980812,0.35548395812575,574011,253184
1173.39125711056,0.371358327648097,580020,246652
1176.96364132437,0.389190556374214,586541,239391
1180.53171244955,0.414088956634942,592702,228427
1185.28243136747,0.454322582474155,603044,211849
1188.84043861918,0.478542067500814,610496,202834
1192.39413278225,0.488740673908572,618069,200584
1195.94351385669,0.487229728237878,626553,204046
1199.4885818425,0.479852982050542,634739,210253
1203.02933673968,0.476213626635013,642902,214749
1206.56577854822,0.476730313702447,651802,217463
1210.09790726814,0.477682717234389,661001,220049
1214.80070297904,0.469748360513697,673300,228276
1218.32276782548,0.452252408903407,682816,241019
1221.84051958329,0.42675759150943,693202,259479
1225.35395825247,0.399716764986284,703688,280326
1228.86308383301,0.374451584872697,714299,301598
1232.36789632493,0.352049453388307,724449,322076
1235.86839572821,0.334137804214772,735243,340638
1240.52901901693,0.315995944694462,749881,362240
1244.01945454674,0.305152174849062,760472,376644
1247.50557698792,0.296473698571009,769166,388639
1250.98738634046,0.289371835859708,778059,399614
1254.46488260438,0.283335656917348,786671,409692
1257.93806577966,0.278409053868542,795425,418977
1261.40693586631,0.273970247484852,803958,427822
1264.87149286432,0.269927665130724,812971,436664
1269.48419294603,0.26561480409876,824682,447375
1272.93868607057,0.263501828779096,834168,454728
1276.38886610648,0.261019856528187,843200,462286
1279.83473305376,0.258541345263412,852194,469891
1283.27628691241,0.25687381809455,860946,476543
1286.71352768243,0.255331289115498,868884,482648
1290.14645536381,0.254235114081898,877344,488579
1293.57506995657,0.252525852058482,885846,495259
1298.13984683125,0.251432506241304,896395,502420
1301.55839755053,0.250422079162268,903365,507506
1304.97263518118,0.25013596653367,910138,511648
1308.3825597232,0.249649760723521,917549,516392
1311.78817117658,0.249361514430044,924224,520494
1315.18946954133,0.249356075080165,929653,523558
1318.58645481745,0.249782537962541,934649,525855
1321.97912700494,0.250347024218496,939707,528014
1326.49598067261,0.251666122584834,945677,529757
1329.87858898662,0.253585785340634,950103,529889
1333.25688421201,0.255601180621054,953845,529513
1336.63086634876,0.258364328234844,957047,527921
1340.00053539688,0.261762182623151,959726,525273
1343.36589135636,0.266438948040801,961442,520576
1346.72693422722,0.273067151308641,962546,513280
1350.08366400944,0.283767382496195,963028,501039
1354.55259447009,0.305573490236953,961157,475577
1357.89926037884,0.326819579873735,960021,452336
1361.24161319896,0.345329351651555,959327,433149
1364.57965293045,0.36135255749725,958722,417196
1367.9133795733,0.37563959749658,958383,403552
1371.24279312752,0.39135401526186,958255,389159
1374.56789359312,0.408444432577344,957143,373708
1378.99465163159,0.432397163740892,953901,352457
1382.30968822371,0.449006478971632,950611,338062
1385.62041172719,0.464455973620824,946429,324812
1388.92682214204,0.480098523447228,942188,311917
1392.22891946827,0.49431382705366,937857,300485
1395.52670370586,0.503204005344412,933593,293058
1398.82017485482,0.500927077000295,929852,293418
1402.10933291514,0.492264434656438,927291,298505
1406.4881677466,0.489419499531296,924838,299672
1409.76726193345,0.495961418552943,922749,294525
1413.04204303167,0.504093938864478,921309,288610
1416.31251104126,0.509211700925418,919833,284772
1419.57866596222,0.511560618441941,918729,282896
1422.84050779454,0.513278031854428,917208,281313
1426.09803653824,0.517379554496167,915833,278251
1429.3512521933,0.522297387837672,915750,275093
1433.68216381773,0.526868106068206,915121,272026
1436.92531559932,0.528216127896139,913363,270662
1440.16415429228,0.527677821970685,912936,270871
1443.3986798966,0.526853521199103,911585,270984
1446.6288924123,0.523825959062457,910497,272554
1449.85479183936,0.520653005269834,908051,273815
1453.07637817779,0.517664620557339,905727,275000
1456.29365142759,0.514069046858185,903172,276504
1460.576639845,0.510214001143587,898347,277479
1463.78384922132,0.506908821309008,894476,278394
1466.98674550902,0.504022181544487,889693,278752
1470.18532870808,0.50027195662759,885619,279882
1473.37959881851,0.496856919713252,880836,280568
1476.5695558403,0.493597550191093,875537,280981
1479.75519977347,0.49198310020278,869901,280212
1482.936530618,0.489223225707568,864338,280195
1487.1715958284,0.487048376898247,856064,278906
1490.34286279946,0.48529920428378,849780,277976
1493.50981668188,0.481378129345534,843557,278443
1496.67245747568,0.477223038067137,836401,278735
1499.83078518084,0.471906874134203,829213,279743
1502.98479979738,0.466568125092081,821641,280617
1506.13450132528,0.462210781652092,814056,280830
1510.3273941135,0.456330520723099,803437,280945
1513.46703176792,0.451527108635525,794826,281025
1516.60235633372,0.448017029440286,785238,279888
1519.73336781088,0.44448980431915,777058,279231
1522.86006619941,0.441295411466424,768275,278113
1525.98245149931,0.436793594943206,758619,277479
1529.10052371058,0.433810555165352,748669,275727
1532.21428283322,0.431436362580052,738857,273605
1536.35925241442,0.428468436616526,725937,270664
1539.46294766358,0.42667141565208,715458,267863
1542.56232982411,0.425212303919642,704428,264621
1545.65739889601,0.42425417623019,693680,261159
1548.74815487928,0.423553806739352,682501,257365
1551.83459777391,0.422825187814942,671114,253496
1554.91672757992,0.423520236594588,659970,248888
1557.99454429729,0.422726455399195,647979,244813
1562.09159067147,0.42272742729261,631488,238582
1565.15934351537,0.422464644994447,619340,234134
1568.22278327063,0.422397709032542,606917,229473
1571.28190993727,0.4234964368112,594685,224280
1574.33672351527,0.423353654910825,582323,219690
1577.38722400464,0.424498295027218,569357,214233
1580.43341140538,0.423378261027215,556948,210105
1583.47528571749,0.424464152791932,544505,204898
1587.52440888465,0.42454635107673,527863,198598
1590.55621932328,0.422570386904938,515169,194706
1593.58371667328,0.423904551062809,502141,189200
1596.60690093465,0.422723042760091,490126,185176
1599.62577210739,0.422055121246471,477824,180806
1602.6403301915,0.420636120753953,465418,176688
1605.65057518697,0.422361817616171,452768,171204
1608.65650709382,0.420185809576841,439298,166945
1612.65770705396,0.420873662880192,420391,159507
1615.65357508733,0.421312700431978,406918,154239
1618.64513003206,0.424955216805178,394191,148167
1621.63237188817,0.426786019100572,381894,142941
1624.61530065564,0.430352033395914,369376,137125
1627.59391633449,0.43515878270366,357586,131287
1630.5682189247,0.436383036302111,345747,126583
1633.53820842628,0.438019901522942,334364,121955
1637.4914851794,0.437414844021367,319040,116528
1640.4514108075,0.437582659316191,307846,112396
1643.40702334698,0.436996929013053,296739,108487
1646.35832279782,0.435206335007582,284919,104596
1649.30530916003,0.434471989447863,273144,100443
1652.2479824336,0.432548459244159,260926,96376
1655.18634261855,0.430071216981541,248001,92126
1659.09744694949,0.426558495245522,228681,85639
1662.02574326097,0.42152355109014,212222,80402
1664.94972648381,0.413333648409503,193672,74771
1667.86939661802,0.403781537608266,173346,68412
1670.78475366359,0.39652047944369,152416,61166
1673.69579762054,0.3953220746009,131239,52813
1676.60252848885,0.401497855924416,111046,44056
1679.50494626853,0.425822558054614,93078,34916
1683.36812739246,0.50073627863314,72973,23037
1686.26048129867,0.618151927095358,60866,14663
1689.14852211624,0.759853407355232,50915,8851
1692.03224984519,0.935544826287339,42552,4936
1694.9116644855,1.03150510298854,35956,3344
1697.78676603718,1.07942532447752,30257,2520
1700.65755450023,1.15116027533718,25607,1808
