***Scan Config Information***,,,,,,,***Reference Scan Information***,,,,,,,,
Scan Config Name:,Column 1,,,,,,Scan Config Name:,Built-in Factory Reference,,,,,,,
Scan Config Type:,Slew,Num Section:,1,,,,Scan Config Type:,Slew,Num Section:,1,,,,,
Section Config Type:,Column,,,,,,Section Config Type:,Column,,,,,,,
Start Wavelength (nm):,900,,,,,,Start Wavelength (nm):,900,,,,,,,
End Wavelength (nm):,1700,,,,,,End Wavelength (nm):,1700,,,,,,,
Pattern Width (nm):,7.03,,,,,,Pattern Width (nm):,7.03,,,,,,,
Exposure (ms):,0.635,,,,,,Exposure (ms):,0.635,,,,,,,
Digital Resolution:,228,,,,,,Digital Resolution:,228,,,,,,,
Num Repeats:,6,,,,,,Num Repeats:,30,,,,,,,
PGA Gain:,64,,,,,,PGA Gain:,64,,,,,,,
System Temp (C):,32.72,,,,,,System Temp (C):,27.24,,,,,,,
Humidity (%):,13.2,,,,,,Humidity (%):,42.33,,,,,,,
Lamp Intensity:,3082,,,,,,Lamp Intensity:,3003,,,,,,,
Data Date-Time:,2022/11/26T19:17:42,,,,,,Data Date-Time:,2021/11/04T14:10:50,,,,,,,
Total Measurement Time in sec:,3.2341942,,,,,,,,,,,,,,
,,,,,,,,,,,,,,,
***General Information***,,,,,,,***Calibration Coefficients***,,,,,,,,
Model Name:,NIR-S-G1,,,,,,Shift Vector Coefficients:,-5.53788089867561,0.0467532770725977,-9.86615555338903E-05,,,,,
Serial Number:,A43R020,(95UB122GC0AA43R020),,,,,Pixel to Wavelength Coefficients:,1754.84743575991,-0.928654795541597,-0.000239616035096235,,,,,
GUI Version:,3.7.6,,,,,,Versions (Cal/Ref/Cfg):,1,3,1,,,,,
TIVA Version:,2.4.7,,,,,,***Lamp Usage ***,,,,,,,,
DLPC Version:,2.2.0,,,,,,Total Time(hh:mm:ss):,16min 15sec ,,,,,,,
UUID:,DE:67:0C:88:67:3F:1D:21,,,,,,***Device/Error/Activation Status***,,,,,,,,
Main Board Version:,D,,,,,,Device Status:,0x00000001,Activation Status:,Activated,,,,,
Detector Board Version:,B,,,,,,Error status:,0x00000000,Error Code:,0x00000000000000000000000000000000,,,,,
,,,,,,,,,Error Details:,Not found,,,,,
***Scan Data***,,,,,,,,,,,,,,,
Wavelength (nm),Absorbance (AU),Reference Signal (unitless),Sample Signal (unitless)
900.957557108074,0.3369361442121,65443,30125
904.844796792001,0.336297137070921,82171,37881
910.021073788255,0.345927593596459,99678,44944
913.898249598708,0.347872303869853,110587,49640
917.771112320529,0.353428822694558,123185,54592
921.639661953718,0.351271091791742,139111,61957
925.503898498276,0.353787182964831,159569,70658
929.363821954203,0.354218840921584,183258,81067
933.219432321497,0.35203594272771,207371,92196
937.070729600159,0.347020542726481,229890,103395
942.199083389394,0.341617070910145,255937,116551
946.040316794582,0.338697776911149,272586,124970
949.877237111139,0.33474885196603,287311,132924
953.709844339064,0.333319112908751,300732,139592
957.538138478358,0.331294639795972,313797,146337
961.362119529019,0.330671651305441,326713,152579
965.181787491049,0.330028349294971,339646,158854
968.997142364448,0.329895914297927,353609,165435
974.077572946662,0.3321003166659,373087,173664
977.882863946587,0.332313683150113,388028,180530
981.683841857879,0.333866908444785,402790,186729
985.48050668054,0.334431842356985,417062,193094
989.272858414569,0.335793612718514,431192,199011
993.060897059966,0.336942282182659,444758,204730
996.844622616732,0.338307919742451,456216,209345
1000.62403508487,0.339260147012218,468463,214494
1005.65654246006,0.340195401811133,482450,220423
1009.42589105472,0.341125953920124,491458,224058
1013.19092656075,0.342358389808924,499843,227235
1016.95164897815,0.342443929296517,506896,230396
1020.70805830691,0.342859581742091,512583,232758
1024.46015454704,0.342996616733096,516710,234558
1028.20793769854,0.340728240016478,519030,236845
1031.95140776141,0.338532261124049,518900,237986
1036.93599192959,0.337527576046326,518793,238488
1040.66939811898,0.335081814043688,518378,239643
1044.39849121975,0.334528160687623,517629,239602
1048.12327123188,0.333643938289869,517016,239806
1051.84373815538,0.331823210764212,515671,240187
1055.55989199025,0.33094334973268,513781,239792
1059.27173273648,0.329832758147299,511708,239436
1064.21414448248,0.32820767924491,508349,238756
1067.91592135525,0.326666889201611,506188,238586
1071.61338513938,0.325161436146924,504263,238504
1075.30653583488,0.323973428501199,502196,238177
1078.99537344174,0.323386227322388,500791,237832
1082.67989795998,0.32192749117894,499607,238068
1086.36010938958,0.321367092432256,499034,238102
1090.03600773056,0.320210234724108,498043,238263
1094.93049626954,0.318608316804409,499075,239639
1098.59633073703,0.318063751306114,500696,240719
1102.2578521159,0.317750623436989,501788,241418
1105.91506040614,0.318105618400387,503305,241950
1109.56795560774,0.317340193457998,505112,243247
1113.21653772071,0.317632724443472,507576,244269
1116.86080674505,0.318119614811301,510261,245286
1120.50076268076,0.318801160172058,513048,246239
1125.34732801272,0.320799523131451,517118,247053
1128.97722007495,0.322581593554827,520581,247689
1132.60279904855,0.326740243524557,524427,247141
1136.22406493352,0.331838383864111,528466,246138
1139.84101772986,0.340663597047365,532886,243204
1143.45365743757,0.351063918660249,536838,239210
1147.06198405664,0.363781928601869,541119,234159
1150.66599758709,0.376651692219971,545478,229153
1155.46463971203,0.387538812937175,551844,226088
1159.058589369,0.39529086593656,557161,224228
1162.64822593734,0.40500195178997,562302,221293
1166.23354941704,0.419199061505892,568178,216414
1169.81455980812,0.434524569765922,574011,211055
1173.39125711056,0.450322702468184,580020,205646
1176.96364132437,0.467053457033908,586541,200099
1180.53171244955,0.492144228429686,592702,190850
1185.28243136747,0.532869196543616,603044,176799
1188.84043861918,0.556546430230904,610496,169487
1192.39413278225,0.567144029034399,618069,167453
1195.94351385669,0.565704914897465,626553,170315
1199.4885818425,0.559167685097176,634739,175157
1203.02933673968,0.553652289083127,642902,179677
1206.56577854822,0.553586385421674,651802,182192
1210.09790726814,0.556433531407337,661001,183556
1214.80070297904,0.548614667223074,673300,190368
1218.32276782548,0.530906735941568,682816,201093
1221.84051958329,0.507731064785427,693202,215342
1225.35395825247,0.480770434669045,703688,232600
1228.86308383301,0.456496286466726,714299,249680
1232.36789632493,0.434798134681963,724449,266201
1235.86839572821,0.417471185217449,735243,281164
1240.52901901693,0.399826922408993,749881,298652
1244.01945454674,0.388788104675972,760472,310667
1247.50557698792,0.380731690930004,769166,320102
1250.98738634046,0.374708577734032,778059,328325
1254.46488260438,0.368355299575658,786671,336851
1257.93806577966,0.363475569214984,795425,344448
1261.40693586631,0.359534195604074,803958,351317
1264.87149286432,0.355571357064371,812971,358512
1269.48419294603,0.351910472170028,824682,366755
1272.93868607057,0.349437588797549,834168,373092
1276.38886610648,0.346911117050154,843200,379332
1279.83473305376,0.345067590431218,852194,385009
1283.27628691241,0.343543981029936,860946,390330
1286.71352768243,0.34162099377878,868884,395677
1290.14645536381,0.340167437676423,877344,400869
1293.57506995657,0.33899267817154,885846,405850
1298.13984683125,0.337245012073836,896395,412339
1301.55839755053,0.336775149523436,903365,415995
1304.97263518118,0.336244858156739,910138,419626
1308.3825597232,0.336126710404473,917549,423158
1311.78817117658,0.336095529480491,924224,426267
1315.18946954133,0.335952678106983,929653,428912
1318.58645481745,0.335858011273341,934649,431311
1321.97912700494,0.336962169870077,939707,432544
1326.49598067261,0.338051007052534,945677,434202
1329.87858898662,0.340222924411945,950103,434058
1333.25688421201,0.342347470241666,953845,433641
1336.63086634876,0.345520902393763,957047,431929
1340.00053539688,0.348929353959622,959726,429752
1343.36589135636,0.353416652079497,961442,426095
1346.72693422722,0.360432858072223,962546,419748
1350.08366400944,0.370793625247549,963028,410058
1354.55259447009,0.394071194809451,961157,387903
1357.89926037884,0.414823816825523,960021,369366
1361.24161319896,0.434431936359877,959327,352805
1364.57965293045,0.450497437659413,958722,339778
1367.9133795733,0.46466012973091,958383,328760
1371.24279312752,0.480793264405134,958255,316729
1374.56789359312,0.496617187791126,957143,305042
1378.99465163159,0.520118356211167,953901,287995
1382.30968822371,0.537424320592242,950611,275790
1385.62041172719,0.552666844072188,946429,265107
1388.92682214204,0.567776252160684,942188,254895
1392.22891946827,0.582486881173705,937857,245273
1395.52670370586,0.591568928867363,933593,239105
1398.82017485482,0.590417700471389,929852,238779
1402.10933291514,0.582649389281001,927291,242419
1406.4881677466,0.579857516340155,924838,243337
1409.76726193345,0.586640256349629,922749,239025
1413.04204303167,0.596001268769459,921309,233563
1416.31251104126,0.601588574497609,919833,230208
1419.57866596222,0.604894623337427,918729,228188
1422.84050779454,0.607752575422404,917208,226316
1426.09803653824,0.612059067300733,915833,223747
1429.3512521933,0.618600807301617,915750,220382
1433.68216381773,0.626096854769625,915121,216462
1436.92531559932,0.627159866358201,913363,215518
1440.16415429228,0.627521385130709,912936,215238
1443.3986798966,0.626392218919356,911585,215479
1446.6288924123,0.625404213716072,910497,215712
1449.85479183936,0.622235296982505,908051,216708
1453.07637817779,0.619869641185724,905727,217334
1456.29365142759,0.616752540859635,903172,218282
1460.576639845,0.612514423998242,898347,219245
1463.78384922132,0.610225191189513,894476,219454
1466.98674550902,0.606855001651974,889693,219981
1470.18532870808,0.603708358030923,885619,220566
1473.37959881851,0.601065174503893,880836,220714
1476.5695558403,0.598273468029919,875537,220801
1479.75519977347,0.595268216189286,869901,220903
1482.936530618,0.59469938991862,864338,219778
1487.1715958284,0.592224762235491,856064,218918
1490.34286279946,0.58841048369257,849780,219228
1493.50981668188,0.586929414811551,843557,218366
1496.67245747568,0.581791988026777,836401,219090
1499.83078518084,0.577233556122771,829213,219499
1502.98479979738,0.571588757388761,821641,220340
1506.13450132528,0.56744466192242,814056,220399
1510.3273941135,0.56143885854699,803437,220553
1513.46703176792,0.5573936143302,794826,220231
1516.60235633372,0.553788439220237,785238,219388
1519.73336781088,0.550443832903236,777058,218781
1522.86006619941,0.546037434224454,768275,218514
1525.98245149931,0.543085920659951,758619,217239
1529.10052371058,0.539884357220889,748669,215976
1532.21428283322,0.537730788253306,738857,214205
1536.35925241442,0.535894625334263,725937,211351
1539.46294766358,0.533255030777384,715458,209570
1542.56232982411,0.533068005342062,704428,206428
1545.65739889601,0.531322552100538,693680,204097
1548.74815487928,0.531584051148781,682501,200687
1551.83459777391,0.531700031136895,671114,197286
1554.91672757992,0.531650834209,659970,194032
1557.99454429729,0.530880145049269,647979,190845
1562.09159067147,0.532262399853384,631488,185397
1565.15934351537,0.532990291872506,619340,181526
1568.22278327063,0.532887446189897,606917,177927
1571.28190993727,0.533615451852796,594685,174049
1574.33672351527,0.534033459672333,582323,170267
1577.38722400464,0.535444047565062,569357,165936
1580.43341140538,0.535678126523403,556948,162232
1583.47528571749,0.53671578871532,544505,158229
1587.52440888465,0.536367575720035,527863,153516
1590.55621932328,0.537352105938788,515169,149485
1593.58371667328,0.53767027377608,502141,145598
1596.60690093465,0.536340519751106,490126,142550
1599.62577210739,0.537172711835193,477824,138706
1602.6403301915,0.5364555121094,465418,135328
1605.65057518697,0.537501860071846,452768,131333
1608.65650709382,0.537848952127484,439298,127324
1612.65770705396,0.537432433163969,420391,121961
1615.65357508733,0.539672369039298,406918,117445
1618.64513003206,0.542605201675876,394191,113006
1621.63237188817,0.54408225973431,381894,109109
1624.61530065564,0.550823867913615,369376,103907
1627.59391633449,0.554363123514892,357586,99774
1630.5682189247,0.55543890860635,345747,96232
1633.53820842628,0.556587305855403,334364,92818
1637.4914851794,0.558337161496368,319040,88208
1640.4514108075,0.557435400544475,307846,85290
1643.40702334698,0.559525769615307,296739,81818
1646.35832279782,0.557710465608474,284919,78888
1649.30530916003,0.557737763018999,273144,75623
1652.2479824336,0.561847024682584,260926,71560
1655.18634261855,0.556890244187813,248001,68796
1659.09744694949,0.554450248615059,228681,63794
1662.02574326097,0.550379814242202,212222,59760
1664.94972648381,0.547486582398529,193672,54901
1667.86939661802,0.540204475217436,173346,49970
1670.78475366359,0.533793087481889,152416,44590
1673.69579762054,0.530295840746238,131239,38705
1676.60252848885,0.541208801102909,111046,31937
1679.50494626853,0.563551919833089,93078,25427
1683.36812739246,0.647049103626589,72973,16448
1686.26048129867,0.753330045083737,60866,10741
1689.14852211624,0.893064669929522,50915,6513
1692.03224984519,1.00878392233877,42552,4170
1694.9116644855,1.13713868440145,35956,2622
1697.78676603718,1.19526855625129,30257,1930
1700.65755450023,1.1581827533926,25607,1779
