***Scan Config Information***,,,,,,,***Reference Scan Information***,,,,,,,,
Scan Config Name:,Column 1,,,,,,Scan Config Name:,Built-in Factory Reference,,,,,,,
Scan Config Type:,Slew,Num Section:,1,,,,Scan Config Type:,Slew,Num Section:,1,,,,,
Section Config Type:,Column,,,,,,Section Config Type:,Column,,,,,,,
Start Wavelength (nm):,900,,,,,,Start Wavelength (nm):,900,,,,,,,
End Wavelength (nm):,1700,,,,,,End Wavelength (nm):,1700,,,,,,,
Pattern Width (nm):,7.03,,,,,,Pattern Width (nm):,7.03,,,,,,,
Exposure (ms):,0.635,,,,,,Exposure (ms):,0.635,,,,,,,
Digital Resolution:,228,,,,,,Digital Resolution:,228,,,,,,,
Num Repeats:,6,,,,,,Num Repeats:,30,,,,,,,
PGA Gain:,64,,,,,,PGA Gain:,64,,,,,,,
System Temp (C):,33.12,,,,,,System Temp (C):,27.24,,,,,,,
Humidity (%):,13.1,,,,,,Humidity (%):,42.33,,,,,,,
Lamp Intensity:,3087,,,,,,Lamp Intensity:,3003,,,,,,,
Data Date-Time:,2022/11/26T19:20:06,,,,,,Data Date-Time:,2021/11/04T14:10:50,,,,,,,
Total Measurement Time in sec:,3.2308995,,,,,,,,,,,,,,
,,,,,,,,,,,,,,,
***General Information***,,,,,,,***Calibration Coefficients***,,,,,,,,
Model Name:,NIR-S-G1,,,,,,Shift Vector Coefficients:,-5.53788089867561,0.0467532770725977,-9.86615555338903E-05,,,,,
Serial Number:,A43R020,(95UB122GC0AA43R020),,,,,Pixel to Wavelength Coefficients:,1754.84743575991,-0.928654795541597,-0.000239616035096235,,,,,
GUI Version:,3.7.6,,,,,,Versions (Cal/Ref/Cfg):,1,3,1,,,,,
TIVA Version:,2.4.7,,,,,,***Lamp Usage ***,,,,,,,,
DLPC Version:,2.2.0,,,,,,Total Time(hh:mm:ss):,16min 39sec ,,,,,,,
UUID:,DE:67:0C:88:67:3F:1D:21,,,,,,***Device/Error/Activation Status***,,,,,,,,
Main Board Version:,D,,,,,,Device Status:,0x00000001,Activation Status:,Activated,,,,,
Detector Board Version:,B,,,,,,Error status:,0x00000000,Error Code:,0x00000000000000000000000000000000,,,,,
,,,,,,,,,Error Details:,Not found,,,,,
***Scan Data***,,,,,,,,,,,,,,,
Wavelength (nm),Absorbance (AU),Reference Signal (unitless),Sample Signal (unitless)
900.957557108074,0.475994559210373,65443,21871
904.844796792001,0.479702830325708,82171,27228
910.021073788255,0.480572584996982,99678,32963
913.898249598708,0.485896220931941,110587,36125
917.771112320529,0.481070137992683,123185,40690
921.639661953718,0.482609798407179,139111,45788
925.503898498276,0.483865949475269,159569,52370
929.363821954203,0.481070744579903,183258,60533
933.219432321497,0.473683511049995,207371,69673
937.070729600159,0.466655955980117,229890,78499
942.199083389394,0.460380856596567,255937,88665
946.040316794582,0.453897836790972,272586,95853
949.877237111139,0.447768232484506,287311,102467
953.709844339064,0.4449489497356,300732,107952
957.538138478358,0.441955315261064,313797,113421
961.362119529019,0.439496226591953,326713,118760
965.181787491049,0.438983438262602,339646,123607
968.997142364448,0.438014406266996,353609,128976
974.077572946662,0.43645798718193,373087,136569
977.882863946587,0.436345400585539,388028,142075
981.683841857879,0.435615861642369,402790,147728
985.48050668054,0.436344520198425,417062,152706
989.272858414569,0.438336964803847,431192,157157
993.060897059966,0.437580533452109,444758,162384
996.844622616732,0.440028888467733,456216,165631
1000.62403508487,0.440609744059612,468463,169850
1005.65654246006,0.441360813944797,482450,174619
1009.42589105472,0.442185301074988,491458,177542
1013.19092656075,0.442320318758058,499843,180515
1016.95164897815,0.443958321925767,506896,182373
1020.70805830691,0.444821297864345,512583,184053
1024.46015454704,0.442870861409687,516710,186370
1028.20793769854,0.44206381441912,519030,187555
1031.95140776141,0.439422256947154,518900,188652
1036.93599192959,0.437774672683597,518793,189330
1040.66939811898,0.435993545917547,518378,189956
1044.39849121975,0.434746440690179,517629,190227
1048.12327123188,0.434505874856911,517016,190107
1051.84373815538,0.432806138217821,515671,190356
1055.55989199025,0.431674858131829,513781,190153
1059.27173273648,0.429460199463991,511708,190354
1064.21414448248,0.428781998903175,508349,189400
1067.91592135525,0.427498611625052,506188,189153
1071.61338513938,0.42566252375996,504263,189232
1075.30653583488,0.424756260063925,502196,188850
1078.99537344174,0.423433753778167,500791,188896
1082.67989795998,0.422644927386604,499607,188792
1086.36010938958,0.421978652835668,499034,188865
1090.03600773056,0.421370676668223,498043,188754
1094.93049626954,0.421118453325021,499075,189255
1098.59633073703,0.420610281869883,500696,190092
1102.2578521159,0.419953281838984,501788,190795
1105.91506040614,0.420872919252411,503305,190967
1109.56795560774,0.421368612225938,505112,191434
1113.21653772071,0.421591811395328,507576,192269
1116.86080674505,0.423278175226761,510261,192537
1120.50076268076,0.423652129333023,513048,193422
1125.34732801272,0.426854823092135,517118,193524
1128.97722007495,0.430548633508613,520581,193170
1132.60279904855,0.434992683390643,524427,192616
1136.22406493352,0.44265041692571,528466,190707
1139.84101772986,0.453505664159567,532886,187555
1143.45365743757,0.46690592753552,536838,183205
1147.06198405664,0.481856550700195,541119,178417
1150.66599758709,0.4956044527166,545478,174250
1155.46463971203,0.509447982342356,551844,170753
1159.058589369,0.518407632154553,557161,168878
1162.64822593734,0.530969618632409,562302,165577
1166.23354941704,0.545624014833494,568178,161756
1169.81455980812,0.563327720184433,574011,156889
1173.39125711056,0.580440904101571,580020,152406
1176.96364132437,0.598897297776389,586541,147707
1180.53171244955,0.625899461810006,592702,140261
1185.28243136747,0.670503952429187,603044,128779
1188.84043861918,0.695587087303025,610496,123054
1192.39413278225,0.70485871818704,618069,121949
1195.94351385669,0.702962118637607,626553,124164
1199.4885818425,0.695534528051155,634739,127956
1203.02933673968,0.69034336881038,642902,131160
1206.56577854822,0.691732680212959,651802,132551
1210.09790726814,0.69374275724377,661001,133801
1214.80070297904,0.683316974241391,673300,139602
1218.32276782548,0.665008473262984,682816,147671
1221.84051958329,0.638390562315487,693202,159393
1225.35395825247,0.608789632415446,703688,173217
1228.86308383301,0.58191304245076,714299,187054
1232.36789632493,0.559597132613609,724449,199715
1235.86839572821,0.541508793164689,735243,211311
1240.52901901693,0.521083809045009,749881,225896
1244.01945454674,0.509684688911358,760472,235179
1247.50557698792,0.500649782110154,769166,242868
1250.98738634046,0.492511775691015,778059,250323
1254.46488260438,0.486406185860063,786671,256677
1257.93806577966,0.48141864380259,795425,262531
1261.40693586631,0.477108290221526,803958,267994
1264.87149286432,0.472567066293568,812971,273847
1269.48419294603,0.467934266705645,824682,280771
1272.93868607057,0.465315924166842,834168,285718
1276.38886610648,0.463287068371797,843200,290164
1279.83473305376,0.460657572786059,852194,295040
1283.27628691241,0.459001259951161,860946,299209
1286.71352768243,0.456966263980962,868884,303386
1290.14645536381,0.455740216775489,877344,307206
1293.57506995657,0.452897509083838,885846,312220
1298.13984683125,0.452169622996589,896395,316468
1301.55839755053,0.451556903483817,903365,319379
1304.97263518118,0.450586955048038,910138,322493
1308.3825597232,0.450858168183049,917549,324916
1311.78817117658,0.450800719027682,924224,327323
1315.18946954133,0.45074628967093,929653,329287
1318.58645481745,0.45102265735344,934649,330846
1321.97912700494,0.453075256752678,939707,331068
1326.49598067261,0.455282876101811,945677,331482
1329.87858898662,0.457690851620049,950103,331192
1333.25688421201,0.460071191882717,953845,330679
1336.63086634876,0.464034479801731,957047,328775
1340.00053539688,0.468166984642481,959726,326573
1343.36589135636,0.47318710324733,961442,323397
1346.72693422722,0.481789942679538,962546,317418
1350.08366400944,0.493118605039184,963028,309400
1354.55259447009,0.518209412422445,961157,291464
1357.89926037884,0.541058631279005,960021,276199
1361.24161319896,0.561794651524275,959327,263131
1364.57965293045,0.579503555970672,958722,252458
1367.9133795733,0.59526135251564,958383,243376
1371.24279312752,0.613119818129633,958255,233540
1374.56789359312,0.630963469130136,957143,223879
1378.99465163159,0.656639250665374,953901,210312
1382.30968822371,0.676048776296777,950611,200426
1385.62041172719,0.692915760868971,946429,191943
1388.92682214204,0.709855863603374,942188,183773
1392.22891946827,0.726355073228715,937857,176109
1395.52670370586,0.738028390251329,933593,170659
1398.82017485482,0.735288212018465,929852,171051
1402.10933291514,0.728284682835377,927291,173353
1406.4881677466,0.728195324378332,924838,172930
1409.76726193345,0.73642149466411,922749,169302
1413.04204303167,0.747450741609042,921309,164799
1416.31251104126,0.754687524844751,919833,161816
1419.57866596222,0.756987816198741,918729,160768
1422.84050779454,0.761188176316895,917208,158957
1426.09803653824,0.765242205360346,915833,157244
1429.3512521933,0.771787195550028,915750,154878
1433.68216381773,0.778376732517203,915121,152441
1436.92531559932,0.780563438157032,913363,151384
1440.16415429228,0.780271432154855,912936,151415
1443.3986798966,0.779135212225999,911585,151587
1446.6288924123,0.77676115483084,910497,152236
1449.85479183936,0.774009625314898,908051,152792
1453.07637817779,0.771769733234722,905727,153189
1456.29365142759,0.769294434640547,903172,153630
1460.576639845,0.765007836191152,898347,154325
1463.78384922132,0.762665508035517,894476,154491
1466.98674550902,0.759483245082965,889693,154795
1470.18532870808,0.756170560540219,885619,155266
1473.37959881851,0.752115803407464,880836,155876
1476.5695558403,0.751483537170007,875537,155164
1479.75519977347,0.748323543476385,869901,155291
1482.936530618,0.746716308513817,864338,154870
1487.1715958284,0.746564813875111,856064,153441
1490.34286279946,0.742725892795137,849780,153667
1493.50981668188,0.739073393591881,843557,153830
1496.67245747568,0.734144324644695,836401,154266
1499.83078518084,0.730134145760585,829213,154359
1502.98479979738,0.7245690075135,821641,154922
1506.13450132528,0.719094288000446,814056,155439
1510.3273941135,0.714040523545392,803437,155207
1513.46703176792,0.710007617754578,794826,154976
1516.60235633372,0.705735639302369,785238,154620
1519.73336781088,0.700536617084703,777058,154852
1522.86006619941,0.697021322412979,768275,154346
1525.98245149931,0.694288961448235,758619,153368
1529.10052371058,0.689430979177507,748669,153059
1532.21428283322,0.686688233213441,738857,152010
1536.35925241442,0.682175157610635,725937,150912
1539.46294766358,0.68158154245792,715458,148937
1542.56232982411,0.681279216714662,704428,146743
1545.65739889601,0.677625109223847,693680,145725
1548.74815487928,0.678603286218445,682501,143054
1551.83459777391,0.677657276056799,671114,140974
1554.91672757992,0.677281812590775,659970,138753
1557.99454429729,0.677371069284509,647979,136204
1562.09159067147,0.677196460759551,631488,132791
1565.15934351537,0.678845194029683,619340,129743
1568.22278327063,0.677003027009081,606917,127681
1571.28190993727,0.677217180259995,594685,125046
1574.33672351527,0.678704450385469,582323,122028
1577.38722400464,0.679115695960137,569357,119198
1580.43341140538,0.678929905603593,556948,116650
1583.47528571749,0.680073375201093,544505,113744
1587.52440888465,0.678565878469959,527863,110651
1590.55621932328,0.679343047150653,515169,107797
1593.58371667328,0.679669474422629,502141,104992
1596.60690093465,0.68150324383372,490126,102048
1599.62577210739,0.679185451460634,477824,100019
1602.6403301915,0.679507219720156,465418,97350
1605.65057518697,0.680324444402501,452768,94526
1608.65650709382,0.679075264151345,439298,91978
1612.65770705396,0.679012841091486,420391,88032
1615.65357508733,0.682228951149423,406918,84582
1618.64513003206,0.685979558370573,394191,81232
1621.63237188817,0.688547299443354,381894,78234
1624.61530065564,0.695889901180608,369376,74401
1627.59391633449,0.698540277787613,357586,71588
1630.5682189247,0.700280841856081,345747,68941
1633.53820842628,0.703932647533756,334364,66113
1637.4914851794,0.707992915023801,319040,62496
1640.4514108075,0.706865372112782,307846,60460
1643.40702334698,0.702561749527137,296739,58859
1646.35832279782,0.705255648181831,284919,56165
1649.30530916003,0.704271436025154,273144,53966
1652.2479824336,0.699238061150517,260926,52153
1655.18634261855,0.701069482563479,248001,49361
1659.09744694949,0.701209141188458,228681,45501
1662.02574326097,0.697268676655104,212222,42611
1664.94972648381,0.69178009746009,193672,39381
1667.86939661802,0.689346591514483,173346,35446
1670.78475366359,0.67450084086021,152416,32250
1673.69579762054,0.680439169541879,131239,27392
1676.60252848885,0.682380031103492,111046,23074
1679.50494626853,0.722028521665324,93078,17653
1683.36812739246,0.812086893266022,72973,11248
1686.26048129867,0.918028338917841,60866,7351
1689.14852211624,1.05576165886059,50915,4478
1692.03224984519,1.23957666606045,42552,2451
1694.9116644855,1.40013173799574,35956,1431
1697.78676603718,1.60001227297827,30257,760
1700.65755450023,1.57077026324101,25607,688
