***Scan Config Information***,,,,,,,***Reference Scan Information***,,,,,,,,
Scan Config Name:,Column 1,,,,,,Scan Config Name:,Built-in Factory Reference,,,,,,,
Scan Config Type:,Slew,Num Section:,1,,,,Scan Config Type:,Slew,Num Section:,1,,,,,
Section Config Type:,Column,,,,,,Section Config Type:,Column,,,,,,,
Start Wavelength (nm):,900,,,,,,Start Wavelength (nm):,900,,,,,,,
End Wavelength (nm):,1700,,,,,,End Wavelength (nm):,1700,,,,,,,
Pattern Width (nm):,7.03,,,,,,Pattern Width (nm):,7.03,,,,,,,
Exposure (ms):,0.635,,,,,,Exposure (ms):,0.635,,,,,,,
Digital Resolution:,228,,,,,,Digital Resolution:,228,,,,,,,
Num Repeats:,6,,,,,,Num Repeats:,30,,,,,,,
PGA Gain:,64,,,,,,PGA Gain:,64,,,,,,,
System Temp (C):,34,,,,,,System Temp (C):,27.24,,,,,,,
Humidity (%):,10,,,,,,Humidity (%):,42.33,,,,,,,
Lamp Intensity:,3086,,,,,,Lamp Intensity:,3003,,,,,,,
Data Date-Time:,2022/11/18T00:17:33,,,,,,Data Date-Time:,2021/11/04T14:10:50,,,,,,,
Total Measurement Time in sec:,3.2271448,,,,,,,,,,,,,,
,,,,,,,,,,,,,,,
***General Information***,,,,,,,***Calibration Coefficients***,,,,,,,,
Model Name:,NIR-S-G1,,,,,,Shift Vector Coefficients:,-5.53788089867561,0.0467532770725977,-9.86615555338903E-05,,,,,
Serial Number:,A43R020,(95UB122GC0AA43R020),,,,,Pixel to Wavelength Coefficients:,1754.84743575991,-0.928654795541597,-0.000239616035096235,,,,,
GUI Version:,3.7.6,,,,,,Versions (Cal/Ref/Cfg):,1,3,1,,,,,
TIVA Version:,2.4.7,,,,,,***Lamp Usage ***,,,,,,,,
DLPC Version:,2.2.0,,,,,,Total Time(hh:mm:ss):,10min 34sec ,,,,,,,
UUID:,DE:67:0C:88:67:3F:1D:21,,,,,,***Device/Error/Activation Status***,,,,,,,,
Main Board Version:,D,,,,,,Device Status:,0x00000101,Activation Status:,Activated,,,,,
Detector Board Version:,B,,,,,,Error status:,0x00000000,Error Code:,0x00000000000000000000000000000000,,,,,
,,,,,,,,,Error Details:,Not found,,,,,
***Scan Data***,,,,,,,,,,,,,,,
Wavelength (nm),Absorbance (AU),Reference Signal (unitless),Sample Signal (unitless)
900.957557108074,0.684693816705701,65443,13526
904.844796792001,0.67694869795725,82171,17289
910.021073788255,0.685006250932636,99678,20587
913.898249598708,0.673672363986964,110587,23444
917.771112320529,0.683251920827685,123185,25545
921.639661953718,0.674585967568606,139111,29429
925.503898498276,0.669595968819723,159569,34147
929.363821954203,0.662209793678042,183258,39889
933.219432321497,0.655418154132262,207371,45849
937.070729600159,0.645433226501517,229890,52010
942.199083389394,0.630771510441619,255937,59891
946.040316794582,0.620025418660501,272586,65385
949.877237111139,0.61279534490403,287311,70074
953.709844339064,0.604272238645207,300732,74801
957.538138478358,0.600916930405836,313797,78656
961.362119529019,0.596335438374019,326713,82762
965.181787491049,0.590226226940871,339646,87257
968.997142364448,0.589167049112943,353609,91066
974.077572946662,0.586379151352639,373087,96701
977.882863946587,0.584515892613769,388028,101006
981.683841857879,0.582840070411372,402790,105254
985.48050668054,0.583009264069491,417062,108941
989.272858414569,0.581730632557166,431192,112964
993.060897059966,0.583370110539827,444758,116079
996.844622616732,0.58403614421054,456216,118887
1000.62403508487,0.582989688277235,468463,122373
1005.65654246006,0.58414467399441,482450,125692
1009.42589105472,0.58413395979768,491458,128042
1013.19092656075,0.585538847208296,499843,129806
1016.95164897815,0.587478524917328,506896,131051
1020.70805830691,0.585863579768101,512583,133015
1024.46015454704,0.583682641599132,516710,134761
1028.20793769854,0.582215944612387,519030,135824
1031.95140776141,0.58069935014138,518900,136265
1036.93599192959,0.576290464370961,518793,137627
1040.66939811898,0.575668468902519,518378,137714
1044.39849121975,0.574829267061168,517629,137781
1048.12327123188,0.572110656205901,517016,138482
1051.84373815538,0.570700357426731,515671,138571
1055.55989199025,0.568573219269142,513781,138741
1059.27173273648,0.567252709642523,511708,138602
1064.21414448248,0.566311211645995,508349,137991
1067.91592135525,0.564599585189494,506188,137947
1071.61338513938,0.562064220784086,504263,138227
1075.30653583488,0.560950106200468,502196,138014
1078.99537344174,0.560479791265675,500791,137777
1082.67989795998,0.558853293696443,499607,137967
1086.36010938958,0.558735967507166,499034,137846
1090.03600773056,0.558806245737896,498043,137550
1094.93049626954,0.558859872250629,499075,137818
1098.59633073703,0.558463136218601,500696,138392
1102.2578521159,0.558534623777701,501788,138671
1105.91506040614,0.56086463794949,503305,138346
1109.56795560774,0.55987014532278,505112,139161
1113.21653772071,0.561743302422404,507576,139238
1116.86080674505,0.563492218215912,510261,139412
1120.50076268076,0.564005147155094,513048,140008
1125.34732801272,0.5703593232952,517118,139069
1128.97722007495,0.573511007733601,520581,138988
1132.60279904855,0.582457566699382,524427,137160
1136.22406493352,0.59086626928975,528466,135566
1139.84101772986,0.605448849727827,532886,132186
1143.45365743757,0.621765558541845,536838,128256
1147.06198405664,0.640765123333172,541119,123745
1150.66599758709,0.662414339583697,545478,118676
1155.46463971203,0.681330018670653,551844,114944
1159.058589369,0.696367348325733,557161,112102
1162.64822593734,0.714547895531516,562302,108498
1166.23354941704,0.733878702019306,568178,104859
1169.81455980812,0.753671044799151,574011,101216
1173.39125711056,0.771464177981948,580020,98170
1176.96364132437,0.794293578380066,586541,94190
1180.53171244955,0.825407572599004,592702,88599
1185.28243136747,0.873976242746614,603044,80607
1188.84043861918,0.903226593383184,610496,76288
1192.39413278225,0.91749548968766,618069,74738
1195.94351385669,0.918556672385455,626553,75579
1199.4885818425,0.917233963274476,634739,76800
1203.02933673968,0.91548262157519,642902,78102
1206.56577854822,0.919151991130366,651802,78517
1210.09790726814,0.921345350469673,661001,79224
1214.80070297904,0.909010192099669,673300,83023
1218.32276782548,0.878827606731409,682816,90256
1221.84051958329,0.846952060941319,693202,98607
1225.35395825247,0.808839458724017,703688,109280
1228.86308383301,0.774521495359367,714299,120049
1232.36789632493,0.743659133486991,724449,130722
1235.86839572821,0.719589964392805,735243,140230
1240.52901901693,0.694381964570809,749881,151569
1244.01945454674,0.679252026491475,760472,159159
1247.50557698792,0.667875982302688,769166,165251
1250.98738634046,0.657787904364742,778059,171090
1254.46488260438,0.650421147700963,786671,175943
1257.93806577966,0.643393604333299,795425,180803
1261.40693586631,0.637004181631001,803958,185451
1264.87149286432,0.631842919246546,812971,189772
1269.48419294603,0.62802610843948,824682,194205
1272.93868607057,0.624965765218106,834168,197828
1276.38886610648,0.623026328771237,843200,200865
1279.83473305376,0.620640146829233,852194,204126
1283.27628691241,0.618010139358625,860946,207475
1286.71352768243,0.615862400277914,868884,210426
1290.14645536381,0.613123616282403,877344,213819
1293.57506995657,0.612568833083947,885846,216167
1298.13984683125,0.610523112784263,896395,219774
1301.55839755053,0.608420050320979,903365,222558
1304.97263518118,0.608977512836033,910138,223939
1308.3825597232,0.609045756558998,917549,225727
1311.78817117658,0.609118579625351,924224,227331
1315.18946954133,0.610629911016152,929653,227872
1318.58645481745,0.612034216745575,934649,228357
1321.97912700494,0.613889639526411,939707,228614
1326.49598067261,0.617236915111292,945677,228300
1329.87858898662,0.620653771495595,950103,227571
1333.25688421201,0.625323251032126,953845,226024
1336.63086634876,0.630090439318239,957047,224307
1340.00053539688,0.636401157077262,959726,221690
1343.36589135636,0.644488510983293,961442,217989
1346.72693422722,0.654921609263257,962546,213059
1350.08366400944,0.670026864283973,963028,205879
1354.55259447009,0.698975426516075,961157,192229
1357.89926037884,0.72566880822063,960021,180556
1361.24161319896,0.747874775907043,959327,171432
1364.57965293045,0.770350520802926,958722,162683
1367.9133795733,0.789046917535507,958383,155773
1371.24279312752,0.8127361861528,958255,147484
1374.56789359312,0.834820873794775,957143,140009
1378.99465163159,0.869783052483572,953901,128742
1382.30968822371,0.895321564694637,950611,120971
1385.62041172719,0.91826604324338,946429,114241
1388.92682214204,0.945058309698721,942188,106925
1392.22891946827,0.96756162776974,937857,101059
1395.52670370586,0.98096593063116,933593,97542
1398.82017485482,0.98456211053207,929852,96350
1402.10933291514,0.980556256403243,927291,96975
1406.4881677466,0.990114852493727,924838,94613
1409.76726193345,1.00237811911325,922749,91771
1413.04204303167,1.01901551927452,921309,88184
1416.31251104126,1.02982706463777,919833,85878
1419.57866596222,1.0339013628728,918729,84974
1422.84050779454,1.03962823957321,917208,83722
1426.09803653824,1.04689164010172,915833,82210
1429.3512521933,1.05775962660344,915750,80171
1433.68216381773,1.06337341976121,915121,79087
1436.92531559932,1.06823712253531,913363,78056
1440.16415429228,1.06967849609734,912936,77761
1443.3986798966,1.06580805942439,911585,78341
1446.6288924123,1.06226206821308,910497,78889
1449.85479183936,1.06315207468234,908051,78516
1453.07637817779,1.06074675192596,905727,78750
1456.29365142759,1.05727565237294,903172,79158
1460.576639845,1.05508100318958,898347,79134
1463.78384922132,1.05507554422901,894476,78794
1466.98674550902,1.04884573168782,889693,79505
1470.18532870808,1.04589759987445,885619,79680
1473.37959881851,1.04372563383514,880836,79647
1476.5695558403,1.03867994289579,875537,80093
1479.75519977347,1.03916279665123,869901,79489
1482.936530618,1.03693968704304,864338,79386
1487.1715958284,1.03649287495761,856064,78707
1490.34286279946,1.03430409115166,849780,78524
1493.50981668188,1.03083557111284,843557,78574
1496.67245747568,1.02747297121808,836401,78513
1499.83078518084,1.02513180798468,829213,78259
1502.98479979738,1.01620923592034,821641,79154
1506.13450132528,1.01383606069459,814056,78853
1510.3273941135,1.00670946416675,803437,79112
1513.46703176792,1.00369073761529,794826,78810
1516.60235633372,0.998838992349336,785238,78734
1519.73336781088,0.993211333163971,777058,78930
1522.86006619941,0.987274337404789,768275,79112
1525.98245149931,0.98468405812629,758619,78585
1529.10052371058,0.979110489286096,748669,78556
1532.21428283322,0.973690735478521,738857,78500
1536.35925241442,0.968231216550262,725937,78103
1539.46294766358,0.968895065112395,715458,76858
1542.56232982411,0.963126188308469,704428,76685
1545.65739889601,0.959483562435844,693680,76151
1548.74815487928,0.955334547415444,682501,75643
1551.83459777391,0.956322162752836,671114,74212
1554.91672757992,0.951997783235192,659970,73710
1557.99454429729,0.950779870900128,647979,72574
1562.09159067147,0.946782474349138,631488,71381
1565.15934351537,0.949157684012958,619340,69626
1568.22278327063,0.952181543084245,606917,67756
1571.28190993727,0.949855233492802,594685,66747
1574.33672351527,0.948094627353325,582323,65625
1577.38722400464,0.946734890894703,569357,64365
1580.43341140538,0.946625784156492,556948,62978
1583.47528571749,0.946512822649619,544505,61587
1587.52440888465,0.942391207882064,527863,60274
1590.55621932328,0.942048308788153,515169,58871
1593.58371667328,0.940870921230507,502141,57538
1596.60690093465,0.941569439790526,490126,56071
1599.62577210739,0.942791777546476,477824,54510
1602.6403301915,0.938889102227904,465418,53574
1605.65057518697,0.93914638035429,452768,52087
1608.65650709382,0.935393471928392,439298,50976
1612.65770705396,0.935536275476089,420391,48766
1615.65357508733,0.931662793643502,406918,47626
1618.64513003206,0.940558661441008,394191,45201
1621.63237188817,0.940934998623864,381894,43753
1624.61530065564,0.943599405628379,369376,42060
1627.59391633449,0.946075636437331,357586,40486
1630.5682189247,0.952463744338026,345747,38574
1633.53820842628,0.946957558473675,334364,37780
1637.4914851794,0.953066618067305,319040,35545
1640.4514108075,0.948016556035172,307846,34699
1643.40702334698,0.94459011053246,296739,33712
1646.35832279782,0.944230021107736,284919,32396
1649.30530916003,0.954089897830304,273144,30360
1652.2479824336,0.95098579960437,260926,29210
1655.18634261855,0.96111570804706,248001,27123
1659.09744694949,0.951788187715891,228681,25553
1662.02574326097,0.952922532722477,212222,23652
1664.94972648381,0.94496012204342,193672,21984
1667.86939661802,0.949547873139991,173346,19470
1670.78475366359,0.941733172721503,152416,17430
1673.69579762054,0.937020078508185,131239,15172
1676.60252848885,0.954821714940251,111046,12322
1679.50494626853,0.974970127934165,93078,9860
1683.36812739246,1.08806170206275,72973,5958
1686.26048129867,1.16916142686608,60866,4123
1689.14852211624,1.35292951718324,50915,2259
1692.03224984519,1.65165376488523,42552,949
1694.9116644855,1.86735154975281,35956,488
1697.78676603718,1.58817483138176,30257,781
1700.65755450023,2.09238835601961,25607,207
