***Scan Config Information***,,,,,,,***Reference Scan Information***,,,,,,,,
Scan Config Name:,Column 1,,,,,,Scan Config Name:,Built-in Factory Reference,,,,,,,
Scan Config Type:,Slew,Num Section:,1,,,,Scan Config Type:,Slew,Num Section:,1,,,,,
Section Config Type:,Column,,,,,,Section Config Type:,Column,,,,,,,
Start Wavelength (nm):,900,,,,,,Start Wavelength (nm):,900,,,,,,,
End Wavelength (nm):,1700,,,,,,End Wavelength (nm):,1700,,,,,,,
Pattern Width (nm):,7.03,,,,,,Pattern Width (nm):,7.03,,,,,,,
Exposure (ms):,0.635,,,,,,Exposure (ms):,0.635,,,,,,,
Digital Resolution:,228,,,,,,Digital Resolution:,228,,,,,,,
Num Repeats:,6,,,,,,Num Repeats:,30,,,,,,,
PGA Gain:,64,,,,,,PGA Gain:,64,,,,,,,
System Temp (C):,33.01,,,,,,System Temp (C):,27.24,,,,,,,
Humidity (%):,13.1,,,,,,Humidity (%):,42.33,,,,,,,
Lamp Intensity:,3085,,,,,,Lamp Intensity:,3003,,,,,,,
Data Date-Time:,2022/11/26T19:18:51,,,,,,Data Date-Time:,2021/11/04T14:10:50,,,,,,,
Total Measurement Time in sec:,3.2341969,,,,,,,,,,,,,,
,,,,,,,,,,,,,,,
***General Information***,,,,,,,***Calibration Coefficients***,,,,,,,,
Model Name:,NIR-S-G1,,,,,,Shift Vector Coefficients:,-5.53788089867561,0.0467532770725977,-9.86615555338903E-05,,,,,
Serial Number:,A43R020,(95UB122GC0AA43R020),,,,,Pixel to Wavelength Coefficients:,1754.84743575991,-0.928654795541597,-0.000239616035096235,,,,,
GUI Version:,3.7.6,,,,,,Versions (Cal/Ref/Cfg):,1,3,1,,,,,
TIVA Version:,2.4.7,,,,,,***Lamp Usage ***,,,,,,,,
DLPC Version:,2.2.0,,,,,,Total Time(hh:mm:ss):,16min 28sec ,,,,,,,
UUID:,DE:67:0C:88:67:3F:1D:21,,,,,,***Device/Error/Activation Status***,,,,,,,,
Main Board Version:,D,,,,,,Device Status:,0x00000001,Activation Status:,Activated,,,,,
Detector Board Version:,B,,,,,,Error status:,0x00000000,Error Code:,0x00000000000000000000000000000000,,,,,
,,,,,,,,,Error Details:,Not found,,,,,
***Scan Data***,,,,,,,,,,,,,,,
Wavelength (nm),Absorbance (AU),Reference Signal (unitless),Sample Signal (unitless)
900.957557108074,0.69292682677872,65443,13272
904.844796792001,0.720537363464422,82171,15638
910.021073788255,0.733451176638496,99678,18414
913.898249598708,0.727062876529052,110587,20732
917.771112320529,0.735585502826992,123185,22645
921.639661953718,0.740842169980122,139111,25265
925.503898498276,0.744235151443011,159569,28755
929.363821954203,0.753739426227796,183258,32309
933.219432321497,0.748405468468001,207371,37012
937.070729600159,0.753325777522341,229890,40569
942.199083389394,0.758564578079161,255937,44624
946.040316794582,0.758343892128883,272586,47551
949.877237111139,0.766864077409231,287311,49146
953.709844339064,0.775706023468264,300732,50405
957.538138478358,0.782310643548513,313797,51801
961.362119529019,0.789096431539043,326713,53097
965.181787491049,0.795499460720728,339646,54391
968.997142364448,0.802037014369653,353609,55781
974.077572946662,0.805114772475971,373087,58438
977.882863946587,0.805259595754408,388028,60758
981.683841857879,0.809622740913117,402790,62439
985.48050668054,0.814265006930485,417062,63964
989.272858414569,0.810896605909634,431192,66646
993.060897059966,0.812902615565179,444758,68426
996.844622616732,0.81220283208996,456216,70302
1000.62403508487,0.817963577079119,468463,71238
1005.65654246006,0.815678508770297,482450,73752
1009.42589105472,0.81555742402523,491458,75150
1013.19092656075,0.815535662698569,499843,76436
1016.95164897815,0.815023564717156,506896,77606
1020.70805830691,0.815326284615723,512583,78422
1024.46015454704,0.814422992955458,516710,79218
1028.20793769854,0.80900831678935,519030,80572
1031.95140776141,0.805383257193507,518900,81227
1036.93599192959,0.804113683140113,518793,81448
1040.66939811898,0.801214208632751,518378,81928
1044.39849121975,0.801892236556663,517629,81682
1048.12327123188,0.798965146847673,517016,82137
1051.84373815538,0.797781000827008,515671,82147
1055.55989199025,0.798104381681102,513781,81785
1059.27173273648,0.797332047994876,511708,81600
1064.21414448248,0.797430388325388,508349,81046
1067.91592135525,0.799655796486947,506188,80289
1071.61338513938,0.800474653537868,504263,79833
1075.30653583488,0.800948834860422,502196,79419
1078.99537344174,0.802893374361052,500791,78843
1082.67989795998,0.803001577836021,499607,78637
1086.36010938958,0.805479101945202,499034,78100
1090.03600773056,0.808862672726552,498043,77340
1094.93049626954,0.810025651392892,499075,77293
1098.59633073703,0.814071552958077,500696,76825
1102.2578521159,0.815611677012681,501788,76720
1105.91506040614,0.820743447894347,503305,76048
1109.56795560774,0.823598178195572,505112,75821
1113.21653772071,0.827444848388643,507576,75519
1116.86080674505,0.835309776172851,510261,74556
1120.50076268076,0.837692874875353,513048,74553
1125.34732801272,0.84649356822267,517118,73637
1128.97722007495,0.855803010064043,520581,72558
1132.60279904855,0.871132626029288,524427,70559
1136.22406493352,0.889200838009191,528466,68205
1139.84101772986,0.909677511702486,532886,65608
1143.45365743757,0.934442958342371,536838,62431
1147.06198405664,0.963443012845433,541119,58864
1150.66599758709,0.982681296078078,545478,56767
1155.46463971203,1.00337667878786,551844,54757
1159.058589369,1.01853705739636,557161,53388
1162.64822593734,1.02362554949771,562302,53253
1166.23354941704,1.04017142242232,568178,51798
1169.81455980812,1.05573204786806,574011,50488
1173.39125711056,1.07494305906496,580020,48809
1176.96364132437,1.09257501106811,586541,47394
1180.53171244955,1.11311029747701,592702,45680
1185.28243136747,1.15144943637636,603044,42550
1188.84043861918,1.17847450598813,610496,40477
1192.39413278225,1.18602297947078,618069,40273
1195.94351385669,1.18078699053683,626553,41321
1199.4885818425,1.17670679944314,634739,42256
1203.02933673968,1.1702049752488,642902,43445
1206.56577854822,1.17172042369663,651802,43893
1210.09790726814,1.17070175108477,661001,44617
1214.80070297904,1.16409337576463,673300,46144
1218.32276782548,1.1531800890901,682816,47987
1221.84051958329,1.13209059118032,693202,51141
1225.35395825247,1.11121479676658,703688,54471
1228.86308383301,1.09115647611873,714299,57906
1232.36789632493,1.07298681884226,724449,61238
1235.86839572821,1.05815914203836,735243,64309
1240.52901901693,1.04419845016252,749881,67732
1244.01945454674,1.03870492501015,760472,69563
1247.50557698792,1.02901946163185,769166,71945
1250.98738634046,1.02219182447199,778059,73930
1254.46488260438,1.02152011269586,786671,74864
1257.93806577966,1.01693212445804,795425,76501
1261.40693586631,1.01300514992295,803958,78024
1264.87149286432,1.01040773016848,812971,79372
1269.48419294603,1.01178194903774,824682,80261
1272.93868607057,1.01020250528001,834168,81480
1276.38886610648,1.01088446351738,843200,82233
1279.83473305376,1.01129820369477,852194,83031
1283.27628691241,1.01266574940363,860946,83620
1286.71352768243,1.01864538088719,868884,83237
1290.14645536381,1.01997771994556,877344,83790
1293.57506995657,1.02462758180891,885846,83701
1298.13984683125,1.03124485854869,896395,83417
1301.55839755053,1.03750784878866,903365,82862
1304.97263518118,1.0426322426285,910138,82504
1308.3825597232,1.05262954201955,917549,81283
1311.78817117658,1.0584465126569,924224,80785
1315.18946954133,1.06839646073881,929653,79419
1318.58645481745,1.08060777079972,934649,77632
1321.97912700494,1.09261910163573,939707,75923
1326.49598067261,1.10779828940634,945677,73781
1329.87858898662,1.12198510282246,950103,71744
1333.25688421201,1.13558505457623,953845,69806
1336.63086634876,1.14652528000642,957047,68298
1340.00053539688,1.15911015406125,959726,66533
1343.36589135636,1.17397653364583,961442,64409
1346.72693422722,1.18869649692392,962546,62334
1350.08366400944,1.2059294213402,963028,59939
1354.55259447009,1.23707170774989,961157,55683
1357.89926037884,1.26169974843684,960021,52551
1361.24161319896,1.28671270530684,959327,49574
1364.57965293045,1.31014035605118,958722,46941
1367.9133795733,1.32843276158169,958383,44989
1371.24279312752,1.36001399465494,958255,41828
1374.56789359312,1.38996790282933,957143,38995
1378.99465163159,1.44829271061052,953901,33979
1382.30968822371,1.4957869056364,950611,30354
1385.62041172719,1.54878048851016,946429,26749
1388.92682214204,1.6046805035012,942188,23413
1392.22891946827,1.66222978868955,937857,20413
1395.52670370586,1.7125270028697,933593,18098
1398.82017485482,1.75370240851816,929852,16395
1402.10933291514,1.78391772359953,927291,15251
1406.4881677466,1.82223927501551,924838,13926
1409.76726193345,1.85150786641449,922749,12989
1413.04204303167,1.88093852820621,921309,12119
1416.31251104126,1.893338595933,919833,11759
1419.57866596222,1.89567022334411,918729,11682
1422.84050779454,1.91863417991069,917208,11062
1426.09803653824,1.91888655496371,915833,11039
1429.3512521933,1.92216454543986,915750,10955
1433.68216381773,1.93205415750354,915121,10701
1436.92531559932,1.94683748717661,913363,10323
1440.16415429228,1.94282275970276,912936,10414
1443.3986798966,1.94443741490471,911585,10360
1446.6288924123,1.96469743791487,910497,9876
1449.85479183936,1.93019010462252,908051,10664
1453.07637817779,1.94105107073004,905727,10374
1456.29365142759,1.93777772742817,903172,10423
1460.576639845,1.93320717791949,898347,10477
1463.78384922132,1.93025532686711,894476,10503
1466.98674550902,1.92197213113713,889693,10648
1470.18532870808,1.91181718710554,885619,10850
1473.37959881851,1.90532231946385,880836,10954
1476.5695558403,1.90528650618913,875537,10889
1479.75519977347,1.88970927832721,869901,11214
1482.936530618,1.86278204855088,864338,11855
1487.1715958284,1.86220971588106,856064,11757
1490.34286279946,1.84323155153904,849780,12192
1493.50981668188,1.84422729421066,843557,12075
1496.67245747568,1.83060694638621,836401,12354
1499.83078518084,1.82812590237961,829213,12318
1502.98479979738,1.80821921868878,821641,12778
1506.13450132528,1.78761975186106,814056,13275
1510.3273941135,1.77571321791822,803437,13466
1513.46703176792,1.76020419606874,794826,13806
1516.60235633372,1.75011588994978,785238,13960
1519.73336781088,1.72207382311656,777058,14736
1522.86006619941,1.71431698448777,768275,14832
1525.98245149931,1.70797568144966,758619,14861
1529.10052371058,1.69253198727968,748669,15197
1532.21428283322,1.69313556243345,738857,14977
1536.35925241442,1.67140861865422,725937,15470
1539.46294766358,1.66307723954625,715458,15542
1542.56232982411,1.65641354353164,704428,15539
1545.65739889601,1.63968011426924,693680,15903
1548.74815487928,1.6314515322839,682501,15946
1551.83459777391,1.62164608951716,671114,16038
1554.91672757992,1.61259043255434,659970,16104
1557.99454429729,1.6109019150326,647979,15873
1562.09159067147,1.59160136952457,631488,16172
1565.15934351537,1.59415251850128,619340,15768
1568.22278327063,1.58156832431489,606917,15906
1571.28190993727,1.5767858880944,594685,15758
1574.33672351527,1.5705108718144,582323,15655
1577.38722400464,1.56460489355504,569357,15516
1580.43341140538,1.55942343303787,556948,15360
1583.47528571749,1.54435527352252,544505,15547
1587.52440888465,1.54761865947601,527863,14959
1590.55621932328,1.53963875319393,515169,14870
1593.58371667328,1.54267435773588,502141,14393
1596.60690093465,1.53050000842715,490126,14448
1599.62577210739,1.52117698638861,477824,14391
1602.6403301915,1.51253750941658,465418,14299
1605.65057518697,1.5174467049001,452768,13754
1608.65650709382,1.50918838543539,439298,13601
1612.65770705396,1.50731137061274,420391,13072
1615.65357508733,1.51769930427401,406918,12354
1618.64513003206,1.5142153759054,394191,12064
1621.63237188817,1.51598985484038,381894,11640
1624.61530065564,1.52003803382314,369376,11154
1627.59391633449,1.49762004252292,357586,11370
1630.5682189247,1.51083828407736,345747,10664
1633.53820842628,1.49731870316923,334364,10639
1637.4914851794,1.50124715591165,319040,10060
1640.4514108075,1.50106956083234,307846,9711
1643.40702334698,1.49396583617345,296739,9515
1646.35832279782,1.49287335238338,284919,9159
1649.30530916003,1.48812544517345,273144,8877
1652.2479824336,1.5027035041942,260926,8200
1655.18634261855,1.46908976465601,248001,8421
1659.09744694949,1.48324331124586,228681,7516
1662.02574326097,1.48443082971887,212222,6956
1664.94972648381,1.4939752372463,193672,6210
1667.86939661802,1.45708667172759,173346,6051
1670.78475366359,1.45622187730653,152416,5331
1673.69579762054,1.45135777641904,131239,4642
1676.60252848885,1.45088941023754,111046,3932
1679.50494626853,1.453503149787,93078,3276
1683.36812739246,1.51818078701451,72973,2213
1686.26048129867,1.66776701767919,60866,1308
1689.14852211624,1.80158969935515,50915,804
1692.03224984519,2.03012947054941,42552,397
1694.9116644855,2.14923119132156,35956,255
1697.78676603718,1.6926574941179,30257,614
1700.65755450023,2.25302266401146,25607,143
