***Scan Config Information***,,,,,,,***Reference Scan Information***,,,,,,,,
Scan Config Name:,Column 1,,,,,,Scan Config Name:,Built-in Factory Reference,,,,,,,
Scan Config Type:,Slew,Num Section:,1,,,,Scan Config Type:,Slew,Num Section:,1,,,,,
Section Config Type:,Column,,,,,,Section Config Type:,Column,,,,,,,
Start Wavelength (nm):,900,,,,,,Start Wavelength (nm):,900,,,,,,,
End Wavelength (nm):,1700,,,,,,End Wavelength (nm):,1700,,,,,,,
Pattern Width (nm):,7.03,,,,,,Pattern Width (nm):,7.03,,,,,,,
Exposure (ms):,0.635,,,,,,Exposure (ms):,0.635,,,,,,,
Digital Resolution:,228,,,,,,Digital Resolution:,228,,,,,,,
Num Repeats:,6,,,,,,Num Repeats:,30,,,,,,,
PGA Gain:,64,,,,,,PGA Gain:,64,,,,,,,
System Temp (C):,32.23,,,,,,System Temp (C):,27.24,,,,,,,
Humidity (%):,24.87,,,,,,Humidity (%):,42.33,,,,,,,
Lamp Intensity:,3072,,,,,,Lamp Intensity:,3003,,,,,,,
Data Date-Time:,2022/11/28T00:27:30,,,,,,Data Date-Time:,2021/11/04T14:10:50,,,,,,,
Total Measurement Time in sec:,3.249832,,,,,,,,,,,,,,
,,,,,,,,,,,,,,,
***General Information***,,,,,,,***Calibration Coefficients***,,,,,,,,
Model Name:,NIR-S-G1,,,,,,Shift Vector Coefficients:,-5.53788089867561,0.0467532770725977,-9.86615555338903E-05,,,,,
Serial Number:,A43R020,(95UB122GC0AA43R020),,,,,Pixel to Wavelength Coefficients:,1754.84743575991,-0.928654795541597,-0.000239616035096235,,,,,
GUI Version:,3.7.6,,,,,,Versions (Cal/Ref/Cfg):,1,3,1,,,,,
TIVA Version:,2.4.7,,,,,,***Lamp Usage ***,,,,,,,,
DLPC Version:,2.2.0,,,,,,Total Time(hh:mm:ss):,16min 55sec ,,,,,,,
UUID:,DE:67:0C:88:67:3F:1D:21,,,,,,***Device/Error/Activation Status***,,,,,,,,
Main Board Version:,D,,,,,,Device Status:,0x00000001,Activation Status:,Activated,,,,,
Detector Board Version:,B,,,,,,Error status:,0x00000000,Error Code:,0x00000000000000000000000000000000,,,,,
,,,,,,,,,Error Details:,Not found,,,,,
***Scan Data***,,,,,,,,,,,,,,,
Wavelength (nm),Absorbance (AU),Reference Signal (unitless),Sample Signal (unitless)
900.957557108074,1.84644728744104,65443,932
904.844796792001,1.87214305981808,82171,1103
910.021073788255,1.9055280090779,99678,1239
913.898249598708,1.89325466723566,110587,1414
917.771112320529,1.85100810700549,123185,1736
921.639661953718,1.94690893085098,139111,1572
925.503898498276,1.95350556193417,159569,1776
929.363821954203,1.95965087195254,183258,2011
933.219432321497,1.92177130240886,207371,2483
937.070729600159,1.97395230085916,229890,2441
942.199083389394,1.97789672158963,255937,2693
946.040316794582,1.94120977806853,272586,3121
949.877237111139,1.99326696616806,287311,2918
953.709844339064,2.02242143944268,300732,2856
957.538138478358,1.95996411465525,313797,3441
961.362119529019,1.94292356495574,326713,3726
965.181787491049,1.94466428097688,339646,3858
968.997142364448,1.97588401303294,353609,3738
974.077572946662,1.96747604346237,373087,4021
977.882863946587,1.96078080431163,388028,4247
981.683841857879,1.93856069930403,402790,4640
985.48050668054,2.01338947461682,417062,4044
989.272858414569,1.97172408035977,431192,4602
993.060897059966,1.96202399661976,444758,4854
996.844622616732,1.97549321357713,456216,4827
1000.62403508487,1.99006786627387,468463,4793
1005.65654246006,1.99069349258356,482450,4929
1009.42589105472,1.95772757336095,491458,5417
1013.19092656075,1.96724484926763,499843,5390
1016.95164897815,2.00594885981147,506896,5000
1020.70805830691,1.99736706714728,512583,5157
1024.46015454704,1.98021018368813,516710,5408
1028.20793769854,2.00086270110499,519030,5180
1031.95140776141,2.00649282554458,518900,5112
1036.93599192959,1.99649241871076,518793,5230
1040.66939811898,2.00665081534133,518378,5105
1044.39849121975,1.99768131166284,517629,5204
1048.12327123188,1.99892277449462,517016,5183
1051.84373815538,2.02297504567655,515671,4891
1055.55989199025,1.98274908527678,513781,5346
1059.27173273648,2.01380328784359,511708,4957
1064.21414448248,2.00106836302256,508349,5071
1067.91592135525,1.99589094516094,506188,5110
1071.61338513938,2.00333980220549,504263,5004
1075.30653583488,1.98629204038794,502196,5183
1078.99537344174,1.99473422409587,500791,5069
1082.67989795998,1.9977518062733,499607,5022
1086.36010938958,2.03273678554279,499034,4628
1090.03600773056,2.06319281497613,498043,4306
1094.93049626954,2.01421868468868,499075,4830
1098.59633073703,2.0054078259533,500696,4945
1102.2578521159,2.01864614904664,501788,4807
1105.91506040614,1.98733383619522,503305,5182
1109.56795560774,1.98190683144548,505112,5266
1113.21653772071,2.03460612539895,507576,4687
1116.86080674505,2.03661953311851,510261,4690
1120.50076268076,2.01625525788578,513048,4942
1125.34732801272,2.055005939682,517118,4556
1128.97722007495,2.05962382177148,520581,4538
1132.60279904855,2.04906815674196,524427,4684
1136.22406493352,2.05846908902343,528466,4619
1139.84101772986,2.0430469930179,532886,4826
1143.45365743757,2.06604812750153,536838,4611
1147.06198405664,2.06017967909425,541119,4711
1150.66599758709,2.05283010873513,545478,4830
1155.46463971203,2.03612362844812,551844,5078
1159.058589369,2.07880803671316,557161,4647
1162.64822593734,2.13056321732727,562302,4163
1166.23354941704,2.06561984566233,568178,4885
1169.81455980812,2.07659459636697,574011,4812
1173.39125711056,2.0409735830925,580020,5278
1176.96364132437,2.06828731295537,586541,5012
1180.53171244955,2.09907845616523,592702,4718
1185.28243136747,2.14126112971323,603044,4356
1188.84043861918,2.14559909139817,610496,4366
1192.39413278225,2.15898479486601,618069,4286
1195.94351385669,2.13656671536982,626553,4575
1199.4885818425,2.10895615714444,634739,4939
1203.02933673968,2.17276157276021,642902,4319
1206.56577854822,2.1392545479897,651802,4730
1210.09790726814,2.1167387746283,661001,5052
1214.80070297904,2.13642009006525,673300,4918
1218.32276782548,2.14820391711681,682816,4854
1221.84051958329,2.13328963095564,693202,5100
1225.35395825247,2.12565194648869,703688,5269
1228.86308383301,2.13141065623997,714299,5278
1232.36789632493,2.09523410036588,724449,5818
1235.86839572821,2.11816532575913,735243,5601
1240.52901901693,2.12626179376813,749881,5607
1244.01945454674,2.13134691272218,760472,5620
1247.50557698792,2.12552220333168,769166,5761
1250.98738634046,2.12788415387037,778059,5796
1254.46488260438,2.11124716648944,786671,6089
1257.93806577966,2.11891565211926,795425,6049
1261.40693586631,2.1153707310843,803958,6164
1264.87149286432,2.12567175212568,812971,6087
1269.48419294603,2.13560924106345,824682,6035
1272.93868607057,2.0998055065906,834168,6629
1276.38886610648,2.10592629106015,843200,6607
1279.83473305376,2.12010431623692,852194,6463
1283.27628691241,2.1080592654331,860946,6713
1286.71352768243,2.12524740813184,868884,6512
1290.14645536381,2.11950009709809,877344,6663
1293.57506995657,2.1250593572123,885846,6642
1298.13984683125,2.10209827742224,896395,7086
1301.55839755053,2.1226523799506,903365,6811
1304.97263518118,2.12710957013423,910138,6792
1308.3825597232,2.11364005998237,917549,7063
1311.78817117658,2.12856771417009,924224,6874
1315.18946954133,2.15440645505725,929653,6515
1318.58645481745,2.11768085462136,934649,7128
1321.97912700494,2.13458418348945,939707,6893
1326.49598067261,2.15012200159803,945677,6693
1329.87858898662,2.12297899534733,950103,7158
1333.25688421201,2.14207878315683,953845,6877
1336.63086634876,2.13225161221625,957047,7058
1340.00053539688,2.13960042396842,959726,6959
1343.36589135636,2.16226195544966,961442,6617
1346.72693422722,2.1550194150851,962546,6736
1350.08366400944,2.1419666643289,963028,6945
1354.55259447009,2.16483252867722,961157,6576
1357.89926037884,2.17718785478478,960021,6384
1361.24161319896,2.167785686703,959327,6519
1364.57965293045,2.17741692620545,958722,6372
1367.9133795733,2.19685050200492,958383,6091
1371.24279312752,2.19119592996854,958255,6170
1374.56789359312,2.19522002754399,957143,6106
1378.99465163159,2.19452959411579,953901,6095
1382.30968822371,2.21375195998984,950611,5811
1385.62041172719,2.2151380878453,946429,5767
1388.92682214204,2.19845431960153,942188,5966
1392.22891946827,2.23781694339922,937857,5424
1395.52670370586,2.18876128155007,933593,6045
1398.82017485482,2.26979139982144,929852,4996
1402.10933291514,2.21286770896432,927291,5680
1406.4881677466,2.23844308788593,924838,5341
1409.76726193345,2.19173604123424,922749,5934
1413.04204303167,2.23898376360583,921309,5314
1416.31251104126,2.26954269036681,919833,4945
1419.57866596222,2.19580890113361,918729,5853
1422.84050779454,2.20454065093051,917208,5727
1426.09803653824,2.24058291828959,915833,5263
1429.3512521933,2.22315489941864,915750,5478
1433.68216381773,2.22579979565565,915121,5441
1436.92531559932,2.23440536771457,913363,5324
1440.16415429228,2.20939229822224,912936,5637
1443.3986798966,2.24104643557426,911585,5233
1446.6288924123,2.22479872974919,910497,5426
1449.85479183936,2.22902648398471,908051,5359
1453.07637817779,2.24325483597852,905727,5173
1456.29365142759,2.23776729692759,903172,5224
1460.576639845,2.26121428605754,898347,4923
1463.78384922132,2.22500447618956,894476,5328
1466.98674550902,2.20144008273938,889693,5595
1470.18532870808,2.23662191022929,885619,5136
1473.37959881851,2.22964402717777,880836,5191
1476.5695558403,2.21636287170099,875537,5320
1479.75519977347,2.24600670287016,869901,4937
1482.936530618,2.21868043859807,864338,5224
1487.1715958284,2.25081284207426,856064,4805
1490.34286279946,2.21876605760126,849780,5135
1493.50981668188,2.21464465175988,843557,5146
1496.67245747568,2.24562951296868,836401,4751
1499.83078518084,2.22838139962121,829213,4901
1502.98479979738,2.21311411742897,821641,5030
1506.13450132528,2.20342486228727,814056,5096
1510.3273941135,2.22963184471086,803437,4735
1513.46703176792,2.20461530518483,794826,4962
1516.60235633372,2.23689447273052,785238,4551
1519.73336781088,2.22477865497544,777058,4631
1522.86006619941,2.20982999258879,768275,4739
1525.98245149931,2.20406216598775,758619,4742
1529.10052371058,2.25833979909196,748669,4130
1532.21428283322,2.29233425477417,738857,3769
1536.35925241442,2.22672406059099,725937,4307
1539.46294766358,2.27093203562836,715458,3834
1542.56232982411,2.24893672315557,704428,3971
1545.65739889601,2.3099357986823,693680,3398
1548.74815487928,2.27204846238486,682501,3648
1551.83459777391,2.22138350050429,671114,4031
1554.91672757992,2.23564559593631,659970,3836
1557.99454429729,2.2023935569823,647979,4066
1562.09159067147,2.25966031887544,631488,3473
1565.15934351537,2.30479075429548,619340,3070
1568.22278327063,2.19496968604854,606917,3874
1571.28190993727,2.22479327102264,594685,3544
1574.33672351527,2.19766705266312,582323,3694
1577.38722400464,2.25597253881078,569357,3158
1580.43341140538,2.25305425970653,556948,3110
1583.47528571749,2.25141734280241,544505,3052
1587.52440888465,2.23004021152546,527863,3108
1590.55621932328,2.27946146594538,515169,2707
1593.58371667328,2.32115764909493,502141,2397
1596.60690093465,2.24392592917414,490126,2795
1599.62577210739,2.24629866869977,477824,2710
1602.6403301915,2.2683425142616,465418,2509
1605.65057518697,2.2577620331756,452768,2501
1608.65650709382,2.21853115535345,439298,2656
1612.65770705396,2.24452926373068,420391,2394
1615.65357508733,2.29627260958096,406918,2057
1618.64513003206,2.24720713414727,394191,2231
1621.63237188817,2.21851890223708,381894,2309
1624.61530065564,2.25003217744358,369376,2077
1627.59391633449,2.30174228676245,357586,1785
1630.5682189247,2.26229661630992,345747,1890
1633.53820842628,2.22689679785419,334364,1983
1637.4914851794,2.30108444923836,319040,1595
1640.4514108075,2.2202237851461,307846,1854
1643.40702334698,2.29167542750045,296739,1516
1646.35832279782,2.2646699936425,284919,1549
1649.30530916003,2.1948451844572,273144,1744
1652.2479824336,2.32485039898223,260926,1235
1655.18634261855,2.21662846014543,248001,1506
1659.09744694949,2.20147119662749,228681,1438
1662.02574326097,2.20359232801755,212222,1328
1664.94972648381,2.20177625919281,193672,1217
1667.86939661802,2.32404200711997,173346,822
1670.78475366359,2.1761368518836,152416,1016
1673.69579762054,2.20637275378508,131239,816
1676.60252848885,2.06187663227311,111046,963
1679.50494626853,2.17785856778656,93078,618
1683.36812739246,2.07147155192165,72973,619
1686.26048129867,2.00118607059218,60866,607
1689.14852211624,1.90888610436641,50915,628
1692.03224984519,1.97378154250114,42552,452
1694.9116644855,2.0359433779798,35956,331
1697.78676603718,NaN,30257,-419
1700.65755450023,1.705928165031,25607,504
