***Scan Config Information***,,,,,,,***Reference Scan Information***,,,,,,,,
Scan Config Name:,Column 1,,,,,,Scan Config Name:,Built-in Factory Reference,,,,,,,
Scan Config Type:,Slew,Num Section:,1,,,,Scan Config Type:,Slew,Num Section:,1,,,,,
Section Config Type:,Column,,,,,,Section Config Type:,Column,,,,,,,
Start Wavelength (nm):,900,,,,,,Start Wavelength (nm):,900,,,,,,,
End Wavelength (nm):,1700,,,,,,End Wavelength (nm):,1700,,,,,,,
Pattern Width (nm):,7.03,,,,,,Pattern Width (nm):,7.03,,,,,,,
Exposure (ms):,0.635,,,,,,Exposure (ms):,0.635,,,,,,,
Digital Resolution:,228,,,,,,Digital Resolution:,228,,,,,,,
Num Repeats:,6,,,,,,Num Repeats:,30,,,,,,,
PGA Gain:,64,,,,,,PGA Gain:,64,,,,,,,
System Temp (C):,34.08,,,,,,System Temp (C):,27.24,,,,,,,
Humidity (%):,9.56,,,,,,Humidity (%):,42.33,,,,,,,
Lamp Intensity:,3095,,,,,,Lamp Intensity:,3003,,,,,,,
Data Date-Time:,2022/11/18T00:38:30,,,,,,Data Date-Time:,2021/11/04T14:10:50,,,,,,,
Total Measurement Time in sec:,3.2269617,,,,,,,,,,,,,,
,,,,,,,,,,,,,,,
***General Information***,,,,,,,***Calibration Coefficients***,,,,,,,,
Model Name:,NIR-S-G1,,,,,,Shift Vector Coefficients:,-5.53788089867561,0.0467532770725977,-9.86615555338903E-05,,,,,
Serial Number:,A43R020,(95UB122GC0AA43R020),,,,,Pixel to Wavelength Coefficients:,1754.84743575991,-0.928654795541597,-0.000239616035096235,,,,,
GUI Version:,3.7.6,,,,,,Versions (Cal/Ref/Cfg):,1,3,1,,,,,
TIVA Version:,2.4.7,,,,,,***Lamp Usage ***,,,,,,,,
DLPC Version:,2.2.0,,,,,,Total Time(hh:mm:ss):,12min 4sec ,,,,,,,
UUID:,DE:67:0C:88:67:3F:1D:21,,,,,,***Device/Error/Activation Status***,,,,,,,,
Main Board Version:,D,,,,,,Device Status:,0x00000001,Activation Status:,Activated,,,,,
Detector Board Version:,B,,,,,,Error status:,0x00000000,Error Code:,0x00000000000000000000000000000000,,,,,
,,,,,,,,,Error Details:,Not found,,,,,
***Scan Data***,,,,,,,,,,,,,,,
Wavelength (nm),Absorbance (AU),Reference Signal (unitless),Sample Signal (unitless)
900.957557108074,0.26967848321798,65443,35171
904.844796792001,0.277559192270205,82171,43367
910.021073788255,0.28438694846033,99678,51786
913.898249598708,0.288965968435109,110587,56851
917.771112320529,0.290659258423099,123185,63081
921.639661953718,0.290552223113591,139111,71254
925.503898498276,0.292751153410754,159569,81320
929.363821954203,0.290776772073105,183258,93818
933.219432321497,0.286026892602965,207371,107330
937.070729600159,0.280068352688228,229890,120629
942.199083389394,0.27229784877519,255937,136721
946.040316794582,0.267560333733964,272586,147212
949.877237111139,0.263236144265592,287311,156717
953.709844339064,0.259927807970725,300732,165292
957.538138478358,0.256451609949349,313797,173859
961.362119529019,0.255229970086727,326713,181525
965.181787491049,0.253183590141435,339646,189602
968.997142364448,0.251943671092498,353609,197961
974.077572946662,0.252015148434197,373087,208831
977.882863946587,0.251875294327298,388028,217264
981.683841857879,0.252180648141075,402790,225371
985.48050668054,0.252189094072303,417062,233352
989.272858414569,0.25326497773316,431192,240661
993.060897059966,0.2535477712766,444758,248071
996.844622616732,0.253619264113514,456216,254420
1000.62403508487,0.253891710634435,468463,261086
1005.65654246006,0.255670929859914,482450,267782
1009.42589105472,0.255570409386097,491458,272845
1013.19092656075,0.257199739860353,499843,276461
1016.95164897815,0.256860605418562,506896,280581
1020.70805830691,0.256978348478408,512583,283652
1024.46015454704,0.255876740065521,516710,286662
1028.20793769854,0.254578730580308,519030,288811
1031.95140776141,0.252706639242568,518900,289986
1036.93599192959,0.250476243993907,518793,291419
1040.66939811898,0.249287507925752,518378,291984
1044.39849121975,0.248577746892339,517629,292039
1048.12327123188,0.247849039432555,517016,292183
1051.84373815538,0.245555487014652,515671,292966
1055.55989199025,0.244782848474248,513781,292412
1059.27173273648,0.243579866979987,511708,292040
1064.21414448248,0.242434674907164,508349,290889
1067.91592135525,0.241800047202193,506188,290076
1071.61338513938,0.240410385958219,504263,289899
1075.30653583488,0.239626908548952,502196,289232
1078.99537344174,0.237976445171695,500791,289521
1082.67989795998,0.23703545581913,499607,289463
1086.36010938958,0.236721658695659,499034,289340
1090.03600773056,0.235480280189334,498043,289592
1094.93049626954,0.234338497938868,499075,290956
1098.59633073703,0.235005591904249,500696,291453
1102.2578521159,0.234358767799905,501788,292524
1105.91506040614,0.23460210996897,503305,293244
1109.56795560774,0.234959117835584,505112,294055
1113.21653772071,0.235492135720063,507576,295127
1116.86080674505,0.235890733462307,510261,296416
1120.50076268076,0.237237806156805,513048,297112
1125.34732801272,0.239415656626357,517118,297971
1128.97722007495,0.241827780527526,520581,298305
1132.60279904855,0.245858069685933,524427,297733
1136.22406493352,0.251731209095046,528466,295996
1139.84101772986,0.259931249352938,532886,292889
1143.45365743757,0.272040047618241,536838,286948
1147.06198405664,0.285759559587136,541119,280242
1150.66599758709,0.296846420965368,545478,275379
1155.46463971203,0.308387342000256,551844,271287
1159.058589369,0.315072388717948,557161,269717
1162.64822593734,0.326356807591556,562302,265224
1166.23354941704,0.341137701418769,568178,259028
1169.81455980812,0.355466805149833,574011,253194
1173.39125711056,0.371382978959692,580020,246638
1176.96364132437,0.389339343288208,586541,239309
1180.53171244955,0.415185453746177,592702,227851
1185.28243136747,0.453974218993627,603044,212019
1188.84043861918,0.480024116003449,610496,202143
1192.39413278225,0.48935384406358,618069,200301
1195.94351385669,0.486751098798895,626553,204271
1199.4885818425,0.480719323776234,634739,209834
1203.02933673968,0.475979099077135,642902,214865
1206.56577854822,0.476852153646199,651802,217402
1210.09790726814,0.478215923509767,661001,219779
1214.80070297904,0.469681778211106,673300,228311
1218.32276782548,0.452095671043575,682816,241106
1221.84051958329,0.426707382893926,693202,259509
1225.35395825247,0.399863968486288,703688,280231
1228.86308383301,0.374134905201451,714299,301818
1232.36789632493,0.352130366267181,724449,322016
1235.86839572821,0.334548530441788,735243,340316
1240.52901901693,0.315846106339009,749881,362365
1244.01945454674,0.305110666543577,760472,376680
1247.50557698792,0.296611169787742,769166,388516
1250.98738634046,0.288950367874567,778059,400002
1254.46488260438,0.283772617745407,786671,409280
1257.93806577966,0.278278467038807,795425,419103
1261.40693586631,0.274339911690626,803958,427458
1264.87149286432,0.270671247806107,812971,435917
1269.48419294603,0.26612086563484,824682,446854
1272.93868607057,0.263211586237299,834168,455032
1276.38886610648,0.261095958627881,843200,462205
1279.83473305376,0.259063857977458,852194,469326
1283.27628691241,0.256934882418211,860946,476476
1286.71352768243,0.255681458743479,868884,482259
1290.14645536381,0.254015612975778,877344,488826
1293.57506995657,0.253073385011714,885846,494635
1298.13984683125,0.251571697788425,896395,502259
1301.55839755053,0.250434915490314,903365,507491
1304.97263518118,0.249797421347742,910138,512047
1308.3825597232,0.249558099537506,917549,516501
1311.78817117658,0.249735481677655,924224,520046
1315.18946954133,0.249453967815551,929653,523440
1318.58645481745,0.249724730029745,934649,525925
1321.97912700494,0.250308368174819,939707,528061
1326.49598067261,0.251794030128208,945677,529601
1329.87858898662,0.253533334415165,950103,529953
1333.25688421201,0.255695511241125,953845,529398
1336.63086634876,0.258098693372813,957047,528244
1340.00053539688,0.261675377545629,959726,525378
1343.36589135636,0.266464810796317,961442,520545
1346.72693422722,0.273178853000191,962546,513148
1350.08366400944,0.283549873240778,963028,501290
1354.55259447009,0.305822864021511,961157,475304
1357.89926037884,0.326651592279632,960021,452511
1361.24161319896,0.345487798389731,959327,432991
1364.57965293045,0.361748311789859,958722,416816
1367.9133795733,0.375848426563298,958383,403358
1371.24279312752,0.391818512130859,958255,388743
1374.56789359312,0.408801350814037,957143,373401
1378.99465163159,0.432292440099751,953901,352542
1382.30968822371,0.448939681826796,950611,338114
1385.62041172719,0.465050036222973,946429,324368
1388.92682214204,0.480230815883967,942188,311822
1392.22891946827,0.494870628833378,937857,300100
1395.52670370586,0.503355189574146,933593,292956
1398.82017485482,0.500688842687888,929852,293579
1402.10933291514,0.493406575623297,927291,297721
1406.4881677466,0.489819672084282,924838,299396
1409.76726193345,0.496584128661067,922749,294103
1413.04204303167,0.505415639846697,921309,287733
1416.31251104126,0.5097244237363,919833,284436
1419.57866596222,0.511981459855841,918729,282622
1422.84050779454,0.513602353514687,917208,281103
1426.09803653824,0.517585629132423,915833,278119
1429.3512521933,0.522583229981151,915750,274912
1433.68216381773,0.527179538770553,915121,271831
1436.92531559932,0.528906639037174,913363,270232
1440.16415429228,0.52811575065582,912936,270598
1443.3986798966,0.526994577945037,911585,270896
1446.6288924123,0.52407301026324,910497,272399
1449.85479183936,0.521129092301856,908051,273515
1453.07637817779,0.517694627394518,905727,274981
1456.29365142759,0.51475439621865,903172,276068
1460.576639845,0.510498950739612,898347,277297
1463.78384922132,0.507587951782377,894476,277959
1466.98674550902,0.503480337115115,889693,279100
1470.18532870808,0.499826845281598,885619,280169
1473.37959881851,0.497389728029038,880836,280224
1476.5695558403,0.494206958326694,875537,280587
1479.75519977347,0.491301688626215,869901,280652
1482.936530618,0.490085866459394,864338,279639
1487.1715958284,0.487592157540141,856064,278557
1490.34286279946,0.484567081807278,849780,278445
1493.50981668188,0.481321982878452,843557,278479
1496.67245747568,0.477402255499931,836401,278620
1499.83078518084,0.472085445658728,829213,279628
1502.98479979738,0.466952109856508,821641,280369
1506.13450132528,0.461816611357696,814056,281085
1510.3273941135,0.455834591102939,803437,281266
1513.46703176792,0.452120945923289,794826,280641
1516.60235633372,0.448313500036406,785238,279697
1519.73336781088,0.444233251765844,777058,279396
1522.86006619941,0.440314289467709,768275,278742
1525.98245149931,0.436878120922824,758619,277425
1529.10052371058,0.433623160045763,748669,275846
1532.21428283322,0.431398268939772,738857,273629
1536.35925241442,0.427900796309184,725937,271018
1539.46294766358,0.426705464929666,715458,267842
1542.56232982411,0.425619510955649,704428,264373
1545.65739889601,0.424232558412117,693680,261172
1548.74815487928,0.423704017116196,682501,257276
1551.83459777391,0.422402228438755,671114,253743
1554.91672757992,0.422288313321021,659970,249595
1557.99454429729,0.422966009370743,647979,244678
1562.09159067147,0.422831197665236,631488,238525
1565.15934351537,0.42193261553411,619340,234421
1568.22278327063,0.422552927780995,606917,229391
1571.28190993727,0.422741898931492,594685,224670
1574.33672351527,0.423181702885216,582323,219777
1577.38722400464,0.423647701905935,569357,214653
1580.43341140538,0.424205863253609,556948,209705
1583.47528571749,0.423636192891419,544505,205289
1587.52440888465,0.422859234458615,527863,199371
1590.55621932328,0.422800190647877,515169,194603
1593.58371667328,0.422481426145761,502141,189821
1596.60690093465,0.422870822211405,490126,185113
1599.62577210739,0.422259338533932,477824,180721
1602.6403301915,0.421992580494984,465418,176137
1605.65057518697,0.421935859704299,452768,171372
1608.65650709382,0.42054755792501,439298,166806
1612.65770705396,0.421355853662276,420391,159330
1615.65357508733,0.421955160512637,406918,154011
1618.64513003206,0.424243539347259,394191,148410
1621.63237188817,0.426145415155027,381894,143152
1624.61530065564,0.430323530044421,369376,137134
1627.59391633449,0.434973575443597,357586,131343
1630.5682189247,0.435711098636372,345747,126779
1633.53820842628,0.436441642421973,334364,122399
1637.4914851794,0.43757140430047,319040,116486
1640.4514108075,0.437717919236811,307846,112361
1643.40702334698,0.437329321263147,296739,108404
1646.35832279782,0.435617588917768,284919,104497
1649.30530916003,0.43411326303685,273144,100526
1652.2479824336,0.432080061781843,260926,96480
1655.18634261855,0.432107777164651,248001,91695
1659.09744694949,0.426812130453694,228681,85589
1662.02574326097,0.42321210938649,212222,80090
1664.94972648381,0.415850122705178,193672,74339
1667.86939661802,0.403616515223679,173346,68438
1670.78475366359,0.398377612300863,152416,60905
1673.69579762054,0.393942761326248,131239,52981
1676.60252848885,0.40062139824235,111046,44145
1679.50494626853,0.426519660101401,93078,34860
1683.36812739246,0.504808499908505,72973,22822
1686.26048129867,0.615847815474753,60866,14741
1689.14852211624,0.742869138106998,50915,9204
1692.03224984519,0.90024161046161,42552,5354
1694.9116644855,1.05608428913711,35956,3160
1697.78676603718,1.15408048569374,30257,2122
1700.65755450023,1.17842101556859,25607,1698
