***Scan Config Information***,,,,,,,***Reference Scan Information***,,,,,,,,
Scan Config Name:,Column 1,,,,,,Scan Config Name:,Built-in Factory Reference,,,,,,,
Scan Config Type:,Slew,Num Section:,1,,,,Scan Config Type:,Slew,Num Section:,1,,,,,
Section Config Type:,Column,,,,,,Section Config Type:,Column,,,,,,,
Start Wavelength (nm):,900,,,,,,Start Wavelength (nm):,900,,,,,,,
End Wavelength (nm):,1700,,,,,,End Wavelength (nm):,1700,,,,,,,
Pattern Width (nm):,7.03,,,,,,Pattern Width (nm):,7.03,,,,,,,
Exposure (ms):,0.635,,,,,,Exposure (ms):,0.635,,,,,,,
Digital Resolution:,228,,,,,,Digital Resolution:,228,,,,,,,
Num Repeats:,6,,,,,,Num Repeats:,30,,,,,,,
PGA Gain:,64,,,,,,PGA Gain:,64,,,,,,,
System Temp (C):,30.37,,,,,,System Temp (C):,27.24,,,,,,,
Humidity (%):,30.42,,,,,,Humidity (%):,42.33,,,,,,,
Lamp Intensity:,3038,,,,,,Lamp Intensity:,3003,,,,,,,
Data Date-Time:,2022/10/11T02:46:09,,,,,,Data Date-Time:,2021/11/04T14:10:50,,,,,,,
Total Measurement Time in sec:,3.2484374,,,,,,,,,,,,,,
,,,,,,,,,,,,,,,
***General Information***,,,,,,,***Calibration Coefficients***,,,,,,,,
Model Name:,NIR-S-G1,,,,,,Shift Vector Coefficients:,-5.53788089867561,0.0467532770725977,-9.86615555338903E-05,,,,,
Serial Number:,A43R020,(95UB122GC0AA43R020),,,,,Pixel to Wavelength Coefficients:,1754.84743575991,-0.928654795541597,-0.000239616035096235,,,,,
GUI Version:,3.7.6,,,,,,Versions (Cal/Ref/Cfg):,1,3,1,,,,,
TIVA Version:,2.4.7,,,,,,***Lamp Usage ***,,,,,,,,
DLPC Version:,2.2.0,,,,,,Total Time(hh:mm:ss):,9min 45sec ,,,,,,,
UUID:,DE:67:0C:88:67:3F:1D:21,,,,,,***Device/Error/Activation Status***,,,,,,,,
Main Board Version:,D,,,,,,Device Status:,0x00000101,Activation Status:,Activated,,,,,
Detector Board Version:,B,,,,,,Error status:,0x00000000,Error Code:,0x00000000000000000000000000000000,,,,,
,,,,,,,,,Error Details:,Not found,,,,,
***Scan Data***,,,,,,,,,,,,,,,
Wavelength (nm),Absorbance (AU),Reference Signal (unitless),Sample Signal (unitless)
900.957557108074,0.454343119518676,65443,22989
904.844796792001,0.469270057992219,82171,27890
910.021073788255,0.46828433313343,99678,33909
913.898249598708,0.4641376816256,110587,37981
917.771112320529,0.466688559495666,123185,42060
921.639661953718,0.464360811974519,139111,47753
925.503898498276,0.460765616844183,159569,55231
929.363821954203,0.461892565539845,183258,63266
933.219432321497,0.460472387299442,207371,71825
937.070729600159,0.453002892627498,229890,81006
942.199083389394,0.447291426626921,255937,91378
946.040316794582,0.443003048758378,272586,98288
949.877237111139,0.440538720755092,287311,104187
953.709844339064,0.436384434555314,300732,110102
957.538138478358,0.434360191905522,313797,115422
961.362119529019,0.431894605841948,326713,120857
965.181787491049,0.428315021318623,339646,126681
968.997142364448,0.428387184059521,353609,131867
974.077572946662,0.424805071720272,373087,140283
977.882863946587,0.422660964099524,388028,146623
981.683841857879,0.421777511146502,402790,152511
985.48050668054,0.421090235854304,417062,158165
989.272858414569,0.420951110712649,431192,163576
993.060897059966,0.420049509848482,444758,169073
996.844622616732,0.421234879715911,456216,172956
1000.62403508487,0.41973104032873,468463,178215
1005.65654246006,0.42027326092431,482450,183307
1009.42589105472,0.419531018229719,491458,187049
1013.19092656075,0.420947181879095,499843,189621
1016.95164897815,0.4205152040496,506896,192488
1020.70805830691,0.420277812260293,512583,194754
1024.46015454704,0.418864421080397,516710,196962
1028.20793769854,0.418233453532873,519030,198134
1031.95140776141,0.415371584954478,518900,199394
1036.93599192959,0.413243780783658,518793,200332
1040.66939811898,0.413499322417353,518378,200054
1044.39849121975,0.413290543489498,517629,199861
1048.12327123188,0.41194664017343,517016,200243
1051.84373815538,0.410420816228407,515671,200425
1055.55989199025,0.409494056045651,513781,200117
1059.27173273648,0.408489763169493,511708,199771
1064.21414448248,0.407446409141707,508349,198937
1067.91592135525,0.406645423293297,506188,198457
1071.61338513938,0.406402273788045,504263,197813
1075.30653583488,0.405143456746441,502196,197574
1078.99537344174,0.403663026614768,500791,197694
1082.67989795998,0.403842747696689,499607,197145
1086.36010938958,0.403269476078175,499034,197179
1090.03600773056,0.403440402077421,498043,196710
1094.93049626954,0.402814266982141,499075,197402
1098.59633073703,0.402588812289017,500696,198146
1102.2578521159,0.403245741582403,501788,198278
1105.91506040614,0.402897427720884,503305,199037
1109.56795560774,0.403370777399426,505112,199534
1113.21653772071,0.404607907567936,507576,199937
1116.86080674505,0.40437814564758,510261,201101
1120.50076268076,0.407790267209764,513048,200617
1125.34732801272,0.409068969023709,517118,201614
1128.97722007495,0.411842708065564,520581,201672
1132.60279904855,0.41462401703931,524427,201865
1136.22406493352,0.419566109709336,528466,201118
1139.84101772986,0.427615404635721,532886,199076
1143.45365743757,0.437813247587346,536838,195898
1147.06198405664,0.449840030386641,541119,192067
1150.66599758709,0.459807906162859,545478,189221
1155.46463971203,0.468294211985903,551844,187725
1159.058589369,0.472761765386525,557161,187594
1162.64822593734,0.481642103043218,562302,185493
1166.23354941704,0.49331674318935,568178,182460
1169.81455980812,0.506982835902381,574011,178623
1173.39125711056,0.522315047081464,580020,174232
1176.96364132437,0.539715815389338,586541,169271
1180.53171244955,0.560283921107675,592702,163137
1185.28243136747,0.598285464116704,603044,152077
1188.84043861918,0.62053349967759,610496,146268
1192.39413278225,0.630412388599201,618069,144752
1195.94351385669,0.626951468171924,626553,147913
1199.4885818425,0.618577004731623,634739,152763
1203.02933673968,0.613622109871195,642902,156503
1206.56577854822,0.612953529374664,651802,158914
1210.09790726814,0.613149711143872,661001,161084
1214.80070297904,0.608150237677421,673300,165981
1218.32276782548,0.593223129614389,682816,174213
1221.84051958329,0.572668098430201,693202,185435
1225.35395825247,0.548933181958591,703688,198814
1228.86308383301,0.527529841519851,714299,212007
1232.36789632493,0.507724940481849,724449,225052
1235.86839572821,0.490791057026094,735243,237487
1240.52901901693,0.474331773768544,749881,251571
1244.01945454674,0.464803951226876,760472,260783
1247.50557698792,0.456577888937747,769166,268808
1250.98738634046,0.450591517278945,778059,275690
1254.46488260438,0.444966896615548,786671,282375
1257.93806577966,0.440008062929691,795425,288796
1261.40693586631,0.436064013144566,803958,294557
1264.87149286432,0.432282609280155,812971,300464
1269.48419294603,0.428848339840479,824682,307212
1272.93868607057,0.425481693997316,834168,313164
1276.38886610648,0.423201761705664,843200,318221
1279.83473305376,0.42142738987134,852194,322932
1283.27628691241,0.419678420991506,860946,327565
1286.71352768243,0.417556942615642,868884,332204
1290.14645536381,0.417051714108665,877344,335829
1293.57506995657,0.415695413886218,885846,340144
1298.13984683125,0.414047602717027,896395,345503
1301.55839755053,0.413024145124984,903365,349011
1304.97263518118,0.411389139285232,910138,352954
1308.3825597232,0.412123298132128,917549,355227
1311.78817117658,0.411432265015489,924224,358381
1315.18946954133,0.411493918634485,929653,360435
1318.58645481745,0.412193187415841,934649,361789
1321.97912700494,0.412060533962497,939707,363858
1326.49598067261,0.412366174293585,945677,365912
1329.87858898662,0.413726335887665,950103,366475
1333.25688421201,0.415275869736957,953845,366608
1336.63086634876,0.416766868803584,957047,366578
1340.00053539688,0.418975987350677,959726,365739
1343.36589135636,0.422416285389055,961442,363502
1346.72693422722,0.428322206089598,962546,359004
1350.08366400944,0.437817383328856,963028,351416
1354.55259447009,0.457863624485665,961157,334912
1357.89926037884,0.476619402780248,960021,320377
1361.24161319896,0.494729278753328,959327,307070
1364.57965293045,0.508570830043816,958722,297250
1367.9133795733,0.521961173408556,958383,288123
1371.24279312752,0.535711921293577,958255,279106
1374.56789359312,0.551331116101675,957143,268934
1378.99465163159,0.571813340833653,953901,255676
1382.30968822371,0.58699535194278,950611,246041
1385.62041172719,0.601816395980217,946429,236740
1388.92682214204,0.615603123614647,942188,228315
1392.22891946827,0.628838341473992,937857,220444
1395.52670370586,0.638224414243577,933593,214750
1398.82017485482,0.636699123153933,929852,214642
1402.10933291514,0.628353337093936,927291,218204
1406.4881677466,0.622994002516905,924838,220329
1409.76726193345,0.627838027412888,922749,217393
1413.04204303167,0.635058291451483,921309,213475
1416.31251104126,0.638505404611231,919833,211448
1419.57866596222,0.638882329595686,918729,211011
1422.84050779454,0.639830990168783,917208,210202
1426.09803653824,0.642568611682743,915833,208568
1429.3512521933,0.645781406117685,915750,207012
1433.68216381773,0.648544138045547,915121,205558
1436.92531559932,0.648112755534955,913363,205367
1440.16415429228,0.647387651144542,912936,205614
1443.3986798966,0.645413741570659,911585,206245
1446.6288924123,0.640191206794005,910497,208491
1449.85479183936,0.637241424800898,908051,209348
1453.07637817779,0.632731325543565,905727,210992
1456.29365142759,0.629836307527371,903172,211804
1460.576639845,0.625082869250324,898347,212991
1463.78384922132,0.622761122189712,894476,213210
1466.98674550902,0.618400432395275,889693,214210
1470.18532870808,0.61612951578523,885619,214347
1473.37959881851,0.611760263531806,880836,215345
1476.5695558403,0.60860560441963,875537,215610
1479.75519977347,0.606894033636532,869901,215068
1482.936530618,0.603889776900574,864338,215176
1487.1715958284,0.601380720137151,856064,214351
1490.34286279946,0.59874461026464,849780,214073
1493.50981668188,0.594883575774249,843557,214403
1496.67245747568,0.590079114383769,836401,214949
1499.83078518084,0.585124119446431,829213,215547
1502.98479979738,0.579280372843574,821641,216472
1506.13450132528,0.574809399415541,814056,216693
1510.3273941135,0.569724676250625,803437,216385
1513.46703176792,0.565374193536958,794826,216221
1516.60235633372,0.562011745140451,785238,215273
1519.73336781088,0.557671716106422,777058,215170
1522.86006619941,0.555500875243878,768275,213804
1525.98245149931,0.551750150079238,758619,212948
1529.10052371058,0.548242932719047,748669,211859
1532.21428283322,0.546186020008506,738857,210075
1536.35925241442,0.543190694743291,725937,207830
1539.46294766358,0.543088818231718,715458,204878
1542.56232982411,0.54133009307835,704428,202538
1545.65739889601,0.541362150974351,693680,199433
1548.74815487928,0.541191842138772,682501,196296
1551.83459777391,0.540546471095619,671114,193308
1554.91672757992,0.540101381540913,659970,190293
1557.99454429729,0.540202659123945,647979,186792
1562.09159067147,0.54070911741922,631488,181826
1565.15934351537,0.541184747702403,619340,178133
1568.22278327063,0.541187057132629,606917,174559
1571.28190993727,0.541855061057914,594685,170778
1574.33672351527,0.54141108446959,582323,167399
1577.38722400464,0.542888101536583,569357,163116
1580.43341140538,0.542400968636912,556948,159740
1583.47528571749,0.543590547521842,544505,155744
1587.52440888465,0.544964522450874,527863,150507
1590.55621932328,0.544340001374205,515169,147099
1593.58371667328,0.544506762830114,502141,143324
1596.60690093465,0.544530384950477,490126,139887
1599.62577210739,0.54514506247458,477824,136183
1602.6403301915,0.545322578668984,465418,132593
1605.65057518697,0.545158101737959,452768,129038
1608.65650709382,0.545609548628656,439298,125069
1612.65770705396,0.547544783607323,420391,119154
1615.65357508733,0.547662527651449,406918,115304
1618.64513003206,0.550833903618539,394191,110885
1621.63237188817,0.552571234120545,381894,106997
1624.61530065564,0.559806227441406,369376,101780
1627.59391633449,0.562704294931241,357586,97876
1630.5682189247,0.563257681812353,345747,94515
1633.53820842628,0.566937948271114,334364,90632
1637.4914851794,0.567125354218949,319040,86441
1640.4514108075,0.56711539375963,307846,83410
1643.40702334698,0.569529001183133,296739,79955
1646.35832279782,0.566216178354059,284919,77358
1649.30530916003,0.564579466479422,273144,74441
1652.2479824336,0.565099999555356,260926,71026
1655.18634261855,0.568294371389794,248001,67013
1659.09744694949,0.56656529382263,228681,62039
1662.02574326097,0.571853721759017,212222,56877
1664.94972648381,0.571005035003997,193672,52007
1667.86939661802,0.576146551896679,173346,46001
1670.78475366359,0.580840299698307,152416,40012
1673.69579762054,0.5885299002157,131239,33848
1676.60252848885,0.605286743317532,111046,27556
1679.50494626853,0.642777576286482,93078,21187
1683.36812739246,0.715887901029928,72973,14037
1686.26048129867,0.833523302778896,60866,8930
1689.14852211624,0.955874763666285,50915,5636
1692.03224984519,1.08225395224234,42552,3521
1694.9116644855,1.1614948449877,35956,2479
1697.78676603718,1.31945786302409,30257,1450
1700.65755450023,1.31493701631429,25607,1240
