***Scan Config Information***,,,,,,,***Reference Scan Information***,,,,,,,,
Scan Config Name:,Column 1,,,,,,Scan Config Name:,Built-in Factory Reference,,,,,,,
Scan Config Type:,Slew,Num Section:,1,,,,Scan Config Type:,Slew,Num Section:,1,,,,,
Section Config Type:,Column,,,,,,Section Config Type:,Column,,,,,,,
Start Wavelength (nm):,900,,,,,,Start Wavelength (nm):,900,,,,,,,
End Wavelength (nm):,1700,,,,,,End Wavelength (nm):,1700,,,,,,,
Pattern Width (nm):,7.03,,,,,,Pattern Width (nm):,7.03,,,,,,,
Exposure (ms):,0.635,,,,,,Exposure (ms):,0.635,,,,,,,
Digital Resolution:,228,,,,,,Digital Resolution:,228,,,,,,,
Num Repeats:,6,,,,,,Num Repeats:,30,,,,,,,
PGA Gain:,64,,,,,,PGA Gain:,64,,,,,,,
System Temp (C):,32.87,,,,,,System Temp (C):,27.24,,,,,,,
Humidity (%):,30.13,,,,,,Humidity (%):,42.33,,,,,,,
Lamp Intensity:,3082,,,,,,Lamp Intensity:,3003,,,,,,,
Data Date-Time:,2022/10/06T23:34:36,,,,,,Data Date-Time:,2021/11/04T14:10:50,,,,,,,
Total Measurement Time in sec:,3.2671253,,,,,,,,,,,,,,
,,,,,,,,,,,,,,,
***General Information***,,,,,,,***Calibration Coefficients***,,,,,,,,
Model Name:,NIR-S-G1,,,,,,Shift Vector Coefficients:,-5.53788089867561,0.0467532770725977,-9.86615555338903E-05,,,,,
Serial Number:,A43R020,(95UB122GC0AA43R020),,,,,Pixel to Wavelength Coefficients:,1754.84743575991,-0.928654795541597,-0.000239616035096235,,,,,
GUI Version:,3.7.6,,,,,,Versions (Cal/Ref/Cfg):,1,3,1,,,,,
TIVA Version:,2.4.7,,,,,,***Lamp Usage ***,,,,,,,,
DLPC Version:,2.2.0,,,,,,Total Time(hh:mm:ss):,8min 33sec ,,,,,,,
UUID:,DE:67:0C:88:67:3F:1D:21,,,,,,***Device/Error/Activation Status***,,,,,,,,
Main Board Version:,D,,,,,,Device Status:,0x00000001,Activation Status:,Activated,,,,,
Detector Board Version:,B,,,,,,Error status:,0x00000000,Error Code:,0x00000000000000000000000000000000,,,,,
,,,,,,,,,Error Details:,Not found,,,,,
***Scan Data***,,,,,,,,,,,,,,,
Wavelength (nm),Absorbance (AU),Reference Signal (unitless),Sample Signal (unitless)
900.957557108074,0.37773239955192,65443,27424
904.844796792001,0.374076317848616,82171,34725
910.021073788255,0.390715571096972,99678,40540
913.898249598708,0.387452508572151,110587,45316
917.771112320529,0.387937759775331,123185,50422
921.639661953718,0.39155137559715,139111,56469
925.503898498276,0.392601732395377,159569,64617
929.363821954203,0.392805387560405,183258,74175
933.219432321497,0.387911952733697,207371,84886
937.070729600159,0.387815091067592,229890,94125
942.199083389394,0.382384946284737,255937,106108
946.040316794582,0.379193400105559,272586,113844
949.877237111139,0.374523677058,287311,121291
953.709844339064,0.372141812596658,300732,127655
957.538138478358,0.371590636104104,313797,133370
961.362119529019,0.371207858476787,326713,138982
965.181787491049,0.370272939038953,339646,144795
968.997142364448,0.369788024287247,353609,150916
974.077572946662,0.36881260585517,373087,159587
977.882863946587,0.368995737312376,388028,165908
981.683841857879,0.370632266029771,402790,171572
985.48050668054,0.371577626529204,417062,177265
989.272858414569,0.37281093262861,431192,182751
993.060897059966,0.372124078948288,444758,188799
996.844622616732,0.374665334449433,456216,192533
1000.62403508487,0.375651678195161,468463,197253
1005.65654246006,0.37675499622075,482450,202627
1009.42589105472,0.378205671129449,491458,205722
1013.19092656075,0.380071377487998,499843,208335
1016.95164897815,0.381452248668244,506896,210604
1020.70805830691,0.38133362457569,512583,213025
1024.46015454704,0.381315716449014,516710,214749
1028.20793769854,0.380662312760342,519030,216038
1031.95140776141,0.379978965914401,518900,216324
1036.93599192959,0.379117159483081,518793,216709
1040.66939811898,0.37866341229641,518378,216762
1044.39849121975,0.379140814108199,517629,216211
1048.12327123188,0.378588035018446,517016,216230
1051.84373815538,0.377623496351906,515671,216147
1055.55989199025,0.377780407025046,513781,215277
1059.27173273648,0.377621231903319,511708,214487
1064.21414448248,0.37787617155741,508349,212954
1067.91592135525,0.377044888891738,506188,212455
1071.61338513938,0.377480223147131,504263,211435
1075.30653583488,0.37572307239855,502196,211422
1078.99537344174,0.376055881559492,500791,210669
1082.67989795998,0.374473690701538,499607,210938
1086.36010938958,0.374131814391526,499034,210862
1090.03600773056,0.374390397229755,498043,210318
1094.93049626954,0.374080998804294,499075,210904
1098.59633073703,0.375289608325991,500696,211001
1102.2578521159,0.375181152790363,501788,211514
1105.91506040614,0.374717628380062,503305,212380
1109.56795560774,0.375063137679461,505112,212973
1113.21653772071,0.375479159095943,507576,213807
1116.86080674505,0.376255760196156,510261,214554
1120.50076268076,0.377408574344196,513048,215154
1125.34732801272,0.378183912989081,517118,216474
1128.97722007495,0.379464563182408,520581,217282
1132.60279904855,0.382311650858374,524427,217457
1136.22406493352,0.387130083068065,528466,216714
1139.84101772986,0.393066135666681,532886,215560
1143.45365743757,0.40282166321375,536838,212335
1147.06198405664,0.413995135150311,541119,208592
1150.66599758709,0.423110346748925,545478,205905
1155.46463971203,0.429835842533128,551844,205107
1159.058589369,0.433979053210628,557161,205117
1162.64822593734,0.44211218521242,562302,203169
1166.23354941704,0.454045460548591,568178,199728
1169.81455980812,0.467036555719334,574011,195832
1173.39125711056,0.479680547351336,580020,192204
1176.96364132437,0.497263400715263,586541,186653
1180.53171244955,0.519796582491218,592702,179077
1185.28243136747,0.55648719174211,603044,167441
1188.84043861918,0.579129477838396,610496,160899
1192.39413278225,0.587666783789975,618069,159724
1195.94351385669,0.582333816740349,626553,163917
1199.4885818425,0.574392509511688,634739,169123
1203.02933673968,0.569225941452584,642902,173348
1206.56577854822,0.570195058388459,651802,175356
1210.09790726814,0.569979787570185,661001,177919
1214.80070297904,0.564750086721134,673300,183425
1218.32276782548,0.550993412701718,682816,192004
1221.84051958329,0.530525546600229,693202,204331
1225.35395825247,0.50862890937029,703688,218148
1228.86308383301,0.486101216138887,714299,233227
1232.36789632493,0.467652103831363,724449,246806
1235.86839572821,0.452419073021811,735243,259425
1240.52901901693,0.436522785125127,749881,274454
1244.01945454674,0.427651741746242,760472,284074
1247.50557698792,0.420261100634477,769166,292253
1250.98738634046,0.414415641055288,778059,299638
1254.46488260438,0.409136009205087,786671,306660
1257.93806577966,0.405000789081209,795425,313039
1261.40693586631,0.401694614705302,803958,318815
1264.87149286432,0.39796191169536,812971,325172
1269.48419294603,0.39476009504064,824682,332297
1272.93868607057,0.392921846370221,834168,337545
1276.38886610648,0.390604824862464,843200,343025
1279.83473305376,0.389838690829632,852194,347296
1283.27628691241,0.388254386261462,860946,352145
1286.71352768243,0.386950997252652,868884,356460
1290.14645536381,0.386008115908896,877344,360713
1293.57506995657,0.385166512867381,885846,364915
1298.13984683125,0.384884982688554,896395,369500
1301.55839755053,0.3847474762967,903365,372491
1304.97263518118,0.384002573179005,910138,375928
1308.3825597232,0.384305291971734,917549,378725
1311.78817117658,0.384084665572419,924224,381674
1315.18946954133,0.38329352820606,929653,384616
1318.58645481745,0.383382202504618,934649,386604
1321.97912700494,0.383558961669716,939707,388538
1326.49598067261,0.382755994048943,945677,391730
1329.87858898662,0.383902260721182,950103,392526
1333.25688421201,0.38454079656848,953845,393493
1336.63086634876,0.385369811133324,957047,394061
1340.00053539688,0.386299556693899,959726,394319
1343.36589135636,0.388505123736144,961442,393023
1346.72693422722,0.392263356272374,962546,390084
1350.08366400944,0.399797678610884,963028,383567
1354.55259447009,0.418885097433601,961157,366361
1357.89926037884,0.436283748004924,960021,351558
1361.24161319896,0.452488831055214,959327,338437
1364.57965293045,0.465567349435823,958722,328190
1367.9133795733,0.478169302562038,958383,318691
1371.24279312752,0.490762912715236,958255,309541
1374.56789359312,0.504983306070391,957143,299222
1378.99465163159,0.524739215107436,953901,284947
1382.30968822371,0.539204257303585,950611,274662
1385.62041172719,0.550465795013706,946429,266454
1388.92682214204,0.562888349274185,942188,257780
1392.22891946827,0.574048980558879,937857,250085
1395.52670370586,0.579591610238313,933593,245791
1398.82017485482,0.573395134278823,929852,248324
1402.10933291514,0.558425078629377,927291,256325
1406.4881677466,0.545440002529178,924838,263406
1409.76726193345,0.543385898339695,922749,264057
1413.04204303167,0.543114059761233,921309,263810
1416.31251104126,0.53924878707702,919833,265742
1419.57866596222,0.531267477046441,918729,270346
1422.84050779454,0.524823480305338,917208,273933
1426.09803653824,0.521530771858942,915833,275604
1429.3512521933,0.518944535190185,915750,277225
1433.68216381773,0.51426310509709,915121,280037
1436.92531559932,0.510485178734248,913363,281941
1440.16415429228,0.505523858445313,912936,285047
1443.3986798966,0.500828628122258,911585,287719
1446.6288924123,0.494887347452283,910497,291334
1449.85479183936,0.489284563901221,908051,294324
1453.07637817779,0.484593415434716,905727,296759
1456.29365142759,0.47860433569697,903172,300031
1460.576639845,0.473703301714304,898347,301815
1463.78384922132,0.469749265476826,894476,303263
1466.98674550902,0.464580232757363,889693,305253
1470.18532870808,0.461465893852416,885619,306042
1473.37959881851,0.457168588693551,880836,307416
1476.5695558403,0.454419497618681,875537,307507
1479.75519977347,0.452434735612777,869901,306927
1482.936530618,0.450495493689606,864338,306329
1487.1715958284,0.447739601126709,856064,305328
1490.34286279946,0.445542389013326,849780,304624
1493.50981668188,0.442893838831847,843557,304243
1496.67245747568,0.4385534918612,836401,304692
1499.83078518084,0.433959213531736,829213,305286
1502.98479979738,0.429157998382169,821641,305861
1506.13450132528,0.425141536924424,814056,305853
1510.3273941135,0.42065341262203,803437,304999
1513.46703176792,0.417517071524465,794826,303917
1516.60235633372,0.415375618793628,785238,301735
1519.73336781088,0.413230857691186,777058,300070
1522.86006619941,0.410442896985906,768275,298589
1525.98245149931,0.407083059240333,758619,297126
1529.10052371058,0.405194228958873,748669,294507
1532.21428283322,0.403537618994896,738857,291758
1536.35925241442,0.40140693017785,725937,288066
1539.46294766358,0.400494240914434,715458,284505
1542.56232982411,0.400294088299676,704428,280248
1545.65739889601,0.39992920945299,693680,276204
1548.74815487928,0.399550355009446,682501,271990
1551.83459777391,0.399313435421831,671114,267598
1554.91672757992,0.399319169716233,659970,263151
1557.99454429729,0.400084330411255,647979,257915
1562.09159067147,0.4000793012869,631488,251354
1565.15934351537,0.400584637146763,619340,246232
1568.22278327063,0.401777726552956,606917,240631
1571.28190993727,0.40156824850434,594685,235895
1574.33672351527,0.403415337640762,582323,230011
1577.38722400464,0.404435361755435,569357,224362
1580.43341140538,0.405642300843011,556948,218863
1583.47528571749,0.406274582760585,544505,213662
1587.52440888465,0.406865696422802,527863,206850
1590.55621932328,0.40877743230548,515169,200989
1593.58371667328,0.409990036527776,502141,195360
1596.60690093465,0.41227933163089,490126,189683
1599.62577210739,0.414712208488255,477824,183889
1602.6403301915,0.413986846759332,465418,179414
1605.65057518697,0.417751807194363,452768,173031
1608.65650709382,0.418588874360247,439298,167560
1612.65770705396,0.420264199220405,420391,159731
1615.65357508733,0.42429916574379,406918,153182
1618.64513003206,0.428681952255525,394191,146901
1621.63237188817,0.434745890297011,381894,140345
1624.61530065564,0.438430067251325,369376,134598
1627.59391633449,0.443980844131351,357586,128647
1630.5682189247,0.447886932267156,345747,123274
1633.53820842628,0.44946522237802,334364,118783
1637.4914851794,0.451686217954911,319040,112761
1640.4514108075,0.452551680693778,307846,108588
1643.40702334698,0.451951190127122,296739,104815
1646.35832279782,0.451015365512585,284919,100857
1649.30530916003,0.450664387924739,273144,96767
1652.2479824336,0.447539687595199,260926,93106
1655.18634261855,0.446236138450142,248001,88760
1659.09744694949,0.442318392165055,228681,82587
1662.02574326097,0.437236602736347,212222,77545
1664.94972648381,0.429221934630861,193672,72085
1667.86939661802,0.418876652856274,173346,66075
1670.78475366359,0.414962520377528,152416,58623
1673.69579762054,0.411353662594087,131239,50899
1676.60252848885,0.418823872816401,111046,42333
1679.50494626853,0.43941668850839,93078,33840
1683.36812739246,0.522420725951793,72973,21915
1686.26048129867,0.608833957650674,60866,14981
1689.14852211624,0.749909334259408,50915,9056
1692.03224984519,0.882519332820963,42552,5577
1694.9116644855,0.987804464932364,35956,3698
1697.78676603718,1.02339817231258,30257,2867
1700.65755450023,1.17765438786396,25607,1701
