***Scan Config Information***,,,,,,,***Reference Scan Information***,,,,,,,,
Scan Config Name:,Column 1,,,,,,Scan Config Name:,Built-in Factory Reference,,,,,,,
Scan Config Type:,Slew,Num Section:,1,,,,Scan Config Type:,Slew,Num Section:,1,,,,,
Section Config Type:,Column,,,,,,Section Config Type:,Column,,,,,,,
Start Wavelength (nm):,900,,,,,,Start Wavelength (nm):,900,,,,,,,
End Wavelength (nm):,1700,,,,,,End Wavelength (nm):,1700,,,,,,,
Pattern Width (nm):,7.03,,,,,,Pattern Width (nm):,7.03,,,,,,,
Exposure (ms):,0.635,,,,,,Exposure (ms):,0.635,,,,,,,
Digital Resolution:,228,,,,,,Digital Resolution:,228,,,,,,,
Num Repeats:,6,,,,,,Num Repeats:,30,,,,,,,
PGA Gain:,64,,,,,,PGA Gain:,64,,,,,,,
System Temp (C):,33,,,,,,System Temp (C):,27.24,,,,,,,
Humidity (%):,30.02,,,,,,Humidity (%):,42.33,,,,,,,
Lamp Intensity:,3085,,,,,,Lamp Intensity:,3003,,,,,,,
Data Date-Time:,2022/10/06T23:34:58,,,,,,Data Date-Time:,2021/11/04T14:10:50,,,,,,,
Total Measurement Time in sec:,3.2663577,,,,,,,,,,,,,,
,,,,,,,,,,,,,,,
***General Information***,,,,,,,***Calibration Coefficients***,,,,,,,,
Model Name:,NIR-S-G1,,,,,,Shift Vector Coefficients:,-5.53788089867561,0.0467532770725977,-9.86615555338903E-05,,,,,
Serial Number:,A43R020,(95UB122GC0AA43R020),,,,,Pixel to Wavelength Coefficients:,1754.84743575991,-0.928654795541597,-0.000239616035096235,,,,,
GUI Version:,3.7.6,,,,,,Versions (Cal/Ref/Cfg):,1,3,1,,,,,
TIVA Version:,2.4.7,,,,,,***Lamp Usage ***,,,,,,,,
DLPC Version:,2.2.0,,,,,,Total Time(hh:mm:ss):,8min 37sec ,,,,,,,
UUID:,DE:67:0C:88:67:3F:1D:21,,,,,,***Device/Error/Activation Status***,,,,,,,,
Main Board Version:,D,,,,,,Device Status:,0x00000001,Activation Status:,Activated,,,,,
Detector Board Version:,B,,,,,,Error status:,0x00000000,Error Code:,0x00000000000000000000000000000000,,,,,
,,,,,,,,,Error Details:,Not found,,,,,
***Scan Data***,,,,,,,,,,,,,,,
Wavelength (nm),Absorbance (AU),Reference Signal (unitless),Sample Signal (unitless)
900.957557108074,0.371443635136387,65443,27824
904.844796792001,0.387449659518303,82171,33672
910.021073788255,0.390233765150837,99678,40585
913.898249598708,0.393347977480234,110587,44705
917.771112320529,0.393913170259659,123185,49733
921.639661953718,0.396384954133558,139111,55844
925.503898498276,0.397481648901764,159569,63895
929.363821954203,0.398884235789445,183258,73144
933.219432321497,0.396196875843581,207371,83282
937.070729600159,0.392243984787417,229890,93170
942.199083389394,0.387374147446749,255937,104896
946.040316794582,0.382724985253389,272586,112922
949.877237111139,0.381297007616248,287311,119414
953.709844339064,0.378222908305636,300732,125880
957.538138478358,0.377244418430719,313797,131645
961.362119529019,0.375658463014527,326713,137565
965.181787491049,0.376003393038362,339646,142897
968.997142364448,0.374908787855705,353609,149147
974.077572946662,0.376192708953488,373087,156898
977.882863946587,0.376992638307548,388028,162881
981.683841857879,0.376978735048473,402790,169083
985.48050668054,0.378203644733005,417062,174581
989.272858414569,0.37955987373933,431192,179933
993.060897059966,0.381682738803824,444758,184689
996.844622616732,0.380796513524882,456216,189834
1000.62403508487,0.383700406905013,468463,193631
1005.65654246006,0.384370144406784,482450,199105
1009.42589105472,0.386864492502826,491458,201661
1013.19092656075,0.387940721173535,499843,204594
1016.95164897815,0.388472524333557,506896,207227
1020.70805830691,0.389713509308858,512583,208954
1024.46015454704,0.389057043248083,516710,210955
1028.20793769854,0.389014367607934,519030,211923
1031.95140776141,0.388131630869677,518900,212301
1036.93599192959,0.387913210641601,518793,212364
1040.66939811898,0.386415826547025,518378,212927
1044.39849121975,0.386255193302913,517629,212698
1048.12327123188,0.386729951920642,517016,212214
1051.84373815538,0.386249949966953,515671,211896
1055.55989199025,0.385609375827552,513781,211431
1059.27173273648,0.38525256274756,511708,210751
1064.21414448248,0.385386520319615,508349,209303
1067.91592135525,0.385126641205986,506188,208538
1071.61338513938,0.383715627924527,504263,208421
1075.30653583488,0.383309222245053,502196,207761
1078.99537344174,0.382954570123833,500791,207349
1082.67989795998,0.38288271761812,499607,206893
1086.36010938958,0.382842189522693,499034,206675
1090.03600773056,0.382733931238562,498043,206316
1094.93049626954,0.381979425508553,499075,207103
1098.59633073703,0.381178929023349,500696,208159
1102.2578521159,0.382592674448325,501788,207935
1105.91506040614,0.38199884470533,503305,208849
1109.56795560774,0.382896594989843,505112,209166
1113.21653772071,0.382579209336067,507576,210340
1116.86080674505,0.382681229786492,510261,211403
1120.50076268076,0.384605393394938,513048,211618
1125.34732801272,0.386349273729299,517118,212442
1128.97722007495,0.387578908449212,520581,213260
1132.60279904855,0.389754538981846,524427,213762
1136.22406493352,0.393318219611871,528466,213648
1139.84101772986,0.401531381997261,532886,211399
1143.45365743757,0.410533109547627,536838,208598
1147.06198405664,0.421189508780311,541119,205165
1150.66599758709,0.431275398022613,545478,202070
1155.46463971203,0.4377223580944,551844,201416
1159.058589369,0.441709969351501,557161,201498
1162.64822593734,0.449332847012578,562302,199819
1166.23354941704,0.460726422231938,568178,196679
1169.81455980812,0.474749007370314,574011,192385
1173.39125711056,0.4873006840747,580020,188861
1176.96364132437,0.503905613509763,586541,183820
1180.53171244955,0.526367356766248,592702,176388
1185.28243136747,0.561939548546276,603044,165352
1188.84043861918,0.584747552545364,610496,158831
1192.39413278225,0.593687473284659,618069,157525
1195.94351385669,0.589767930361608,626553,161135
1199.4885818425,0.582604841658096,634739,165955
1203.02933673968,0.576754202537394,642902,170369
1206.56577854822,0.57669763268128,651802,172750
1210.09790726814,0.579104107108257,661001,174220
1214.80070297904,0.573047109916245,673300,179954
1218.32276782548,0.560178182131736,682816,187986
1221.84051958329,0.539543271579282,693202,200132
1225.35395825247,0.515993344086651,703688,214480
1228.86308383301,0.49366542882865,714299,229200
1232.36789632493,0.475962802546655,724449,242128
1235.86839572821,0.460461636822519,735243,254665
1240.52901901693,0.444680207150793,749881,269347
1244.01945454674,0.435295383745987,760472,279118
1247.50557698792,0.428425789062069,769166,286810
1250.98738634046,0.422821810855796,778059,293894
1254.46488260438,0.417535522268788,786671,300786
1257.93806577966,0.413981760934634,795425,306632
1261.40693586631,0.409765344016754,803958,312945
1264.87149286432,0.406942437272733,812971,318517
1269.48419294603,0.404272217768259,824682,325098
1272.93868607057,0.401480642181604,834168,330958
1276.38886610648,0.399680515111281,843200,335931
1279.83473305376,0.399072328672302,852194,339990
1283.27628691241,0.397397319620435,860946,344809
1286.71352768243,0.395941046687934,868884,349157
1290.14645536381,0.395443189172467,877344,352961
1293.57506995657,0.395154968425612,885846,356618
1298.13984683125,0.393961246916773,896395,361858
1301.55839755053,0.393427637495088,903365,365120
1304.97263518118,0.392596691422097,910138,368562
1308.3825597232,0.392597974351603,917549,371562
1311.78817117658,0.392422842708545,924224,374416
1315.18946954133,0.391902349449172,929653,377067
1318.58645481745,0.391567245019858,934649,379386
1321.97912700494,0.39192730362953,939707,381123
1326.49598067261,0.391880078555718,945677,383586
1329.87858898662,0.392088920779942,950103,385196
1333.25688421201,0.392609315065961,953845,386250
1336.63086634876,0.393272803515889,957047,386955
1340.00053539688,0.394001096879771,959726,387388
1343.36589135636,0.396078210429444,961442,386229
1346.72693422722,0.400347469620049,962546,382890
1350.08366400944,0.407747066891934,963028,376610
1354.55259447009,0.426655930244408,961157,359864
1357.89926037884,0.444120630506005,960021,345271
1361.24161319896,0.460480764526005,959327,332266
1364.57965293045,0.473191254924713,958722,322479
1367.9133795733,0.484745018726989,958383,313902
1371.24279312752,0.498368999654034,958255,304167
1374.56789359312,0.511577534195761,957143,294713
1378.99465163159,0.532128179755743,953901,280140
1382.30968822371,0.54677259713483,950611,269917
1385.62041172719,0.557939275070016,946429,261908
1388.92682214204,0.569608306800629,942188,253822
1392.22891946827,0.581530010355473,937857,245814
1395.52670370586,0.586049798572971,933593,242163
1398.82017485482,0.579916541567815,929852,244623
1402.10933291514,0.565553627462679,927291,252152
1406.4881677466,0.551652250423834,924838,259665
1409.76726193345,0.550740419236892,922749,259623
1413.04204303167,0.549630784455293,921309,259881
1416.31251104126,0.546343596150933,919833,261436
1419.57866596222,0.539576242091368,918729,265223
1422.84050779454,0.53253799780321,917208,269110
1426.09803653824,0.528822959657754,915833,271015
1429.3512521933,0.526990930330154,915750,272136
1433.68216381773,0.52339523279432,915121,274210
1436.92531559932,0.518835204257367,913363,276572
1440.16415429228,0.514761418865172,912936,279048
1443.3986798966,0.509200149781519,911585,282226
1446.6288924123,0.503491424891736,910497,285619
1449.85479183936,0.498102938144359,908051,288408
1453.07637817779,0.49249882481202,905727,291406
1456.29365142759,0.488277792223101,903172,293422
1460.576639845,0.482675052272725,898347,295644
1463.78384922132,0.478819554451048,894476,296995
1466.98674550902,0.474262376201083,889693,298523
1470.18532870808,0.469795732124915,885619,300228
1473.37959881851,0.466291048273814,880836,301026
1476.5695558403,0.463680595329989,875537,301019
1479.75519977347,0.461114040067633,869901,300854
1482.936530618,0.459303300380651,864338,300179
1487.1715958284,0.456607064688476,856064,299157
1490.34286279946,0.455066924259733,849780,298016
1493.50981668188,0.452379366172489,843557,297670
1496.67245747568,0.447841371818725,836401,298245
1499.83078518084,0.443544302339461,829213,298622
1502.98479979738,0.43869583817063,821641,299217
1506.13450132528,0.435036838742117,814056,298963
1510.3273941135,0.429396854466016,803437,298920
1513.46703176792,0.427819874722525,794826,296792
1516.60235633372,0.424993836591486,785238,295126
1519.73336781088,0.421394681972134,777058,294482
1522.86006619941,0.418905583101281,768275,292827
1525.98245149931,0.416294923978828,758619,290890
1529.10052371058,0.414717951985214,748669,288119
1532.21428283322,0.412706399430927,738857,285663
1536.35925241442,0.410083454601552,725937,282368
1539.46294766358,0.40974646959439,715458,278508
1542.56232982411,0.408902070514732,704428,274748
1545.65739889601,0.408446368089942,693680,270840
1548.74815487928,0.408345786819523,682501,266537
1551.83459777391,0.408032779508943,671114,262279
1554.91672757992,0.408409775884031,659970,257700
1557.99454429729,0.40851079555,647979,252959
1562.09159067147,0.409398218600348,631488,246018
1565.15934351537,0.40933221381882,619340,241322
1568.22278327063,0.409237562355225,606917,236533
1571.28190993727,0.411529392676798,594685,230546
1574.33672351527,0.41238925886043,582323,225307
1577.38722400464,0.412788300602385,569357,220088
1580.43341140538,0.413925969678458,556948,214728
1583.47528571749,0.415228493795236,544505,209302
1587.52440888465,0.416242055754723,527863,202432
1590.55621932328,0.416761007559951,515169,197328
1593.58371667328,0.419483190061605,502141,191136
1596.60690093465,0.421339173777628,490126,185767
1599.62577210739,0.422201667452386,477824,180745
1602.6403301915,0.424343779027746,465418,175186
1605.65057518697,0.42572580322119,452768,169883
1608.65650709382,0.427822703092503,439298,164035
1612.65770705396,0.430155923749982,420391,156134
1615.65357508733,0.434061773759968,406918,149777
1618.64513003206,0.438174387113091,394191,143725
1621.63237188817,0.442038572991036,381894,138008
1624.61530065564,0.448034615310333,369376,131654
1627.59391633449,0.452276417457114,357586,126213
1630.5682189247,0.454922682675903,345747,121293
1633.53820842628,0.460012437804541,334364,115933
1637.4914851794,0.462563013231733,319040,109972
1640.4514108075,0.463257148911798,307846,105944
1643.40702334698,0.463297846283069,296739,102112
1646.35832279782,0.461152928611977,284919,98530
1649.30530916003,0.460312344547699,273144,94641
1652.2479824336,0.460243247826141,260926,90422
1655.18634261855,0.457929636534566,248001,86402
1659.09744694949,0.451056151481755,228681,80942
1662.02574326097,0.447470836320044,212222,75739
1664.94972648381,0.440204188254008,193672,70285
1667.86939661802,0.430372022415054,173346,64349
1670.78475366359,0.423324952046159,152416,57505
1673.69579762054,0.421636622874841,131239,49708
1676.60252848885,0.433026355269205,111046,40971
1679.50494626853,0.448245618133162,93078,33159
1683.36812739246,0.528165920698546,72973,21627
1686.26048129867,0.63129195730561,60866,14226
1689.14852211624,0.782411384560374,50915,8403
1692.03224984519,0.934665865287245,42552,4946
1694.9116644855,0.980814595991011,35956,3758
1697.78676603718,1.07753372010081,30257,2531
1700.65755450023,1.13189689730328,25607,1890
